# Mass = 0.0442061 Mev*(hbarc)^2/2 
# R = 2.885 fm 
# a = 0.662 fm 
# V0 = 60.374 MeV 
# RSO = 2.651 fm 
# aSO = 0.662 fm 
# VSO = 32.876 MeV fm^2
# l = 0 
# two_j = 1 
# two_t = -1 
# Energy = -34.3578 MeV
# r 	 V_eff [2m/hbar/hbar]
0.1 	-59.4881
0.10238 	-59.485
0.10476 	-59.4818
0.10714 	-59.4787
0.10952 	-59.4755
0.1119 	-59.4723
0.11428 	-59.4691
0.11666 	-59.4659
0.11904 	-59.4627
0.12142 	-59.4594
0.1238 	-59.4562
0.12618 	-59.4529
0.12856 	-59.4497
0.13094 	-59.4464
0.13332 	-59.4431
0.1357 	-59.4398
0.13808 	-59.4365
0.14046 	-59.4332
0.14284 	-59.4298
0.14522 	-59.4265
0.1476 	-59.4231
0.14998 	-59.4197
0.15236 	-59.4164
0.15474 	-59.413
0.15712 	-59.4096
0.1595 	-59.4061
0.16188 	-59.4027
0.16426 	-59.3993
0.16664 	-59.3958
0.16902 	-59.3924
0.1714 	-59.3889
0.17378 	-59.3854
0.17616 	-59.3819
0.17854 	-59.3784
0.18092 	-59.3748
0.1833 	-59.3713
0.18568 	-59.3678
0.18806 	-59.3642
0.19044 	-59.3606
0.19282 	-59.357
0.1952 	-59.3534
0.19758 	-59.3498
0.19996 	-59.3462
0.20234 	-59.3425
0.20472 	-59.3389
0.2071 	-59.3352
0.20948 	-59.3316
0.21186 	-59.3279
0.21424 	-59.3242
0.21662 	-59.3204
0.219 	-59.3167
0.22138 	-59.313
0.22376 	-59.3092
0.22614 	-59.3055
0.22852 	-59.3017
0.2309 	-59.2979
0.23328 	-59.2941
0.23566 	-59.2903
0.23804 	-59.2864
0.24042 	-59.2826
0.2428 	-59.2787
0.24518 	-59.2748
0.24756 	-59.271
0.24994 	-59.2671
0.25232 	-59.2631
0.2547 	-59.2592
0.25708 	-59.2553
0.25946 	-59.2513
0.26184 	-59.2474
0.26422 	-59.2434
0.2666 	-59.2394
0.26898 	-59.2354
0.27136 	-59.2313
0.27374 	-59.2273
0.27612 	-59.2233
0.2785 	-59.2192
0.28088 	-59.2151
0.28326 	-59.211
0.28564 	-59.2069
0.28802 	-59.2028
0.2904 	-59.1987
0.29278 	-59.1945
0.29516 	-59.1903
0.29754 	-59.1862
0.29992 	-59.182
0.3023 	-59.1778
0.30468 	-59.1735
0.30706 	-59.1693
0.30944 	-59.165
0.31182 	-59.1608
0.3142 	-59.1565
0.31658 	-59.1522
0.31896 	-59.1479
0.32134 	-59.1436
0.32372 	-59.1392
0.3261 	-59.1349
0.32848 	-59.1305
0.33086 	-59.1261
0.33324 	-59.1217
0.33562 	-59.1173
0.338 	-59.1129
0.34038 	-59.1084
0.34276 	-59.104
0.34514 	-59.0995
0.34752 	-59.095
0.3499 	-59.0905
0.35228 	-59.0859
0.35466 	-59.0814
0.35704 	-59.0769
0.35942 	-59.0723
0.3618 	-59.0677
0.36418 	-59.0631
0.36656 	-59.0585
0.36894 	-59.0538
0.37132 	-59.0492
0.3737 	-59.0445
0.37608 	-59.0398
0.37846 	-59.0351
0.38084 	-59.0304
0.38322 	-59.0257
0.3856 	-59.0209
0.38798 	-59.0162
0.39036 	-59.0114
0.39274 	-59.0066
0.39512 	-59.0018
0.3975 	-58.997
0.39988 	-58.9921
0.40226 	-58.9873
0.40464 	-58.9824
0.40702 	-58.9775
0.4094 	-58.9726
0.41178 	-58.9676
0.41416 	-58.9627
0.41654 	-58.9577
0.41892 	-58.9527
0.4213 	-58.9477
0.42368 	-58.9427
0.42606 	-58.9377
0.42844 	-58.9327
0.43082 	-58.9276
0.4332 	-58.9225
0.43558 	-58.9174
0.43796 	-58.9123
0.44034 	-58.9071
0.44272 	-58.902
0.4451 	-58.8968
0.44748 	-58.8916
0.44986 	-58.8864
0.45224 	-58.8812
0.45462 	-58.876
0.457 	-58.8707
0.45938 	-58.8654
0.46176 	-58.8601
0.46414 	-58.8548
0.46652 	-58.8495
0.4689 	-58.8441
0.47128 	-58.8387
0.47366 	-58.8334
0.47604 	-58.8279
0.47842 	-58.8225
0.4808 	-58.8171
0.48318 	-58.8116
0.48556 	-58.8061
0.48794 	-58.8006
0.49032 	-58.7951
0.4927 	-58.7896
0.49508 	-58.784
0.49746 	-58.7784
0.49984 	-58.7729
0.50222 	-58.7672
0.5046 	-58.7616
0.50698 	-58.756
0.50936 	-58.7503
0.51174 	-58.7446
0.51412 	-58.7389
0.5165 	-58.7332
0.51888 	-58.7274
0.52126 	-58.7216
0.52364 	-58.7159
0.52602 	-58.71
0.5284 	-58.7042
0.53078 	-58.6984
0.53316 	-58.6925
0.53554 	-58.6866
0.53792 	-58.6807
0.5403 	-58.6748
0.54268 	-58.6688
0.54506 	-58.6629
0.54744 	-58.6569
0.54982 	-58.6509
0.5522 	-58.6448
0.55458 	-58.6388
0.55696 	-58.6327
0.55934 	-58.6266
0.56172 	-58.6205
0.5641 	-58.6144
0.56648 	-58.6082
0.56886 	-58.6021
0.57124 	-58.5959
0.57362 	-58.5897
0.576 	-58.5834
0.57838 	-58.5772
0.58076 	-58.5709
0.58314 	-58.5646
0.58552 	-58.5583
0.5879 	-58.5519
0.59028 	-58.5456
0.59266 	-58.5392
0.59504 	-58.5328
0.59742 	-58.5263
0.5998 	-58.5199
0.60218 	-58.5134
0.60456 	-58.5069
0.60694 	-58.5004
0.60932 	-58.4939
0.6117 	-58.4873
0.61408 	-58.4807
0.61646 	-58.4741
0.61884 	-58.4675
0.62122 	-58.4609
0.6236 	-58.4542
0.62598 	-58.4475
0.62836 	-58.4408
0.63074 	-58.434
0.63312 	-58.4273
0.6355 	-58.4205
0.63788 	-58.4137
0.64026 	-58.4068
0.64264 	-58.4
0.64502 	-58.3931
0.6474 	-58.3862
0.64978 	-58.3793
0.65216 	-58.3723
0.65454 	-58.3654
0.65692 	-58.3584
0.6593 	-58.3514
0.66168 	-58.3443
0.66406 	-58.3373
0.66644 	-58.3302
0.66882 	-58.3231
0.6712 	-58.3159
0.67358 	-58.3088
0.67596 	-58.3016
0.67834 	-58.2944
0.68072 	-58.2872
0.6831 	-58.2799
0.68548 	-58.2726
0.68786 	-58.2653
0.69024 	-58.258
0.69262 	-58.2506
0.695 	-58.2433
0.69738 	-58.2359
0.69976 	-58.2284
0.70214 	-58.221
0.70452 	-58.2135
0.7069 	-58.206
0.70928 	-58.1985
0.71166 	-58.1909
0.71404 	-58.1833
0.71642 	-58.1757
0.7188 	-58.1681
0.72118 	-58.1605
0.72356 	-58.1528
0.72594 	-58.1451
0.72832 	-58.1373
0.7307 	-58.1296
0.73308 	-58.1218
0.73546 	-58.114
0.73784 	-58.1062
0.74022 	-58.0983
0.7426 	-58.0904
0.74498 	-58.0825
0.74736 	-58.0746
0.74974 	-58.0666
0.75212 	-58.0586
0.7545 	-58.0506
0.75688 	-58.0425
0.75926 	-58.0345
0.76164 	-58.0264
0.76402 	-58.0182
0.7664 	-58.0101
0.76878 	-58.0019
0.77116 	-57.9937
0.77354 	-57.9855
0.77592 	-57.9772
0.7783 	-57.9689
0.78068 	-57.9606
0.78306 	-57.9523
0.78544 	-57.9439
0.78782 	-57.9355
0.7902 	-57.9271
0.79258 	-57.9186
0.79496 	-57.9101
0.79734 	-57.9016
0.79972 	-57.8931
0.8021 	-57.8845
0.80448 	-57.8759
0.80686 	-57.8673
0.80924 	-57.8586
0.81162 	-57.85
0.814 	-57.8413
0.81638 	-57.8325
0.81876 	-57.8238
0.82114 	-57.815
0.82352 	-57.8061
0.8259 	-57.7973
0.82828 	-57.7884
0.83066 	-57.7795
0.83304 	-57.7705
0.83542 	-57.7616
0.8378 	-57.7526
0.84018 	-57.7435
0.84256 	-57.7345
0.84494 	-57.7254
0.84732 	-57.7163
0.8497 	-57.7071
0.85208 	-57.6979
0.85446 	-57.6887
0.85684 	-57.6795
0.85922 	-57.6702
0.8616 	-57.6609
0.86398 	-57.6516
0.86636 	-57.6422
0.86874 	-57.6328
0.87112 	-57.6234
0.8735 	-57.614
0.87588 	-57.6045
0.87826 	-57.595
0.88064 	-57.5854
0.88302 	-57.5758
0.8854 	-57.5662
0.88778 	-57.5566
0.89016 	-57.5469
0.89254 	-57.5372
0.89492 	-57.5275
0.8973 	-57.5177
0.89968 	-57.5079
0.90206 	-57.4981
0.90444 	-57.4882
0.90682 	-57.4783
0.9092 	-57.4684
0.91158 	-57.4584
0.91396 	-57.4484
0.91634 	-57.4384
0.91872 	-57.4284
0.9211 	-57.4183
0.92348 	-57.4081
0.92586 	-57.398
0.92824 	-57.3878
0.93062 	-57.3776
0.933 	-57.3673
0.93538 	-57.357
0.93776 	-57.3467
0.94014 	-57.3364
0.94252 	-57.326
0.9449 	-57.3156
0.94728 	-57.3051
0.94966 	-57.2946
0.95204 	-57.2841
0.95442 	-57.2735
0.9568 	-57.2629
0.95918 	-57.2523
0.96156 	-57.2417
0.96394 	-57.231
0.96632 	-57.2202
0.9687 	-57.2095
0.97108 	-57.1987
0.97346 	-57.1878
0.97584 	-57.177
0.97822 	-57.1661
0.9806 	-57.1551
0.98298 	-57.1442
0.98536 	-57.1331
0.98774 	-57.1221
0.99012 	-57.111
0.9925 	-57.0999
0.99488 	-57.0888
0.99726 	-57.0776
0.99964 	-57.0663
1.00202 	-57.0551
1.0044 	-57.0438
1.00678 	-57.0325
1.00916 	-57.0211
1.01154 	-57.0097
1.01392 	-56.9983
1.0163 	-56.9868
1.01868 	-56.9753
1.02106 	-56.9637
1.02344 	-56.9521
1.02582 	-56.9405
1.0282 	-56.9288
1.03058 	-56.9171
1.03296 	-56.9054
1.03534 	-56.8936
1.03772 	-56.8818
1.0401 	-56.87
1.04248 	-56.8581
1.04486 	-56.8462
1.04724 	-56.8342
1.04962 	-56.8222
1.052 	-56.8102
1.05438 	-56.7981
1.05676 	-56.786
1.05914 	-56.7738
1.06152 	-56.7616
1.0639 	-56.7494
1.06628 	-56.7371
1.06866 	-56.7248
1.07104 	-56.7125
1.07342 	-56.7001
1.0758 	-56.6877
1.07818 	-56.6752
1.08056 	-56.6627
1.08294 	-56.6502
1.08532 	-56.6376
1.0877 	-56.625
1.09008 	-56.6123
1.09246 	-56.5996
1.09484 	-56.5869
1.09722 	-56.5741
1.0996 	-56.5613
1.10198 	-56.5484
1.10436 	-56.5355
1.10674 	-56.5226
1.10912 	-56.5096
1.1115 	-56.4966
1.11388 	-56.4835
1.11626 	-56.4704
1.11864 	-56.4572
1.12102 	-56.444
1.1234 	-56.4308
1.12578 	-56.4175
1.12816 	-56.4042
1.13054 	-56.3909
1.13292 	-56.3775
1.1353 	-56.364
1.13768 	-56.3506
1.14006 	-56.337
1.14244 	-56.3235
1.14482 	-56.3099
1.1472 	-56.2962
1.14958 	-56.2825
1.15196 	-56.2688
1.15434 	-56.255
1.15672 	-56.2412
1.1591 	-56.2273
1.16148 	-56.2134
1.16386 	-56.1995
1.16624 	-56.1855
1.16862 	-56.1715
1.171 	-56.1574
1.17338 	-56.1433
1.17576 	-56.1291
1.17814 	-56.1149
1.18052 	-56.1006
1.1829 	-56.0863
1.18528 	-56.072
1.18766 	-56.0576
1.19004 	-56.0432
1.19242 	-56.0287
1.1948 	-56.0142
1.19718 	-55.9996
1.19956 	-55.985
1.20194 	-55.9703
1.20432 	-55.9556
1.2067 	-55.9409
1.20908 	-55.9261
1.21146 	-55.9113
1.21384 	-55.8964
1.21622 	-55.8815
1.2186 	-55.8665
1.22098 	-55.8515
1.22336 	-55.8364
1.22574 	-55.8213
1.22812 	-55.8061
1.2305 	-55.7909
1.23288 	-55.7757
1.23526 	-55.7604
1.23764 	-55.7451
1.24002 	-55.7297
1.2424 	-55.7142
1.24478 	-55.6987
1.24716 	-55.6832
1.24954 	-55.6676
1.25192 	-55.652
1.2543 	-55.6363
1.25668 	-55.6206
1.25906 	-55.6049
1.26144 	-55.589
1.26382 	-55.5732
1.2662 	-55.5573
1.26858 	-55.5413
1.27096 	-55.5253
1.27334 	-55.5092
1.27572 	-55.4931
1.2781 	-55.477
1.28048 	-55.4608
1.28286 	-55.4445
1.28524 	-55.4282
1.28762 	-55.4119
1.29 	-55.3955
1.29238 	-55.379
1.29476 	-55.3625
1.29714 	-55.346
1.29952 	-55.3294
1.3019 	-55.3127
1.30428 	-55.2961
1.30666 	-55.2793
1.30904 	-55.2625
1.31142 	-55.2457
1.3138 	-55.2288
1.31618 	-55.2118
1.31856 	-55.1948
1.32094 	-55.1778
1.32332 	-55.1607
1.3257 	-55.1435
1.32808 	-55.1263
1.33046 	-55.1091
1.33284 	-55.0918
1.33522 	-55.0744
1.3376 	-55.057
1.33998 	-55.0396
1.34236 	-55.022
1.34474 	-55.0045
1.34712 	-54.9869
1.3495 	-54.9692
1.35188 	-54.9515
1.35426 	-54.9337
1.35664 	-54.9159
1.35902 	-54.898
1.3614 	-54.8801
1.36378 	-54.8621
1.36616 	-54.8441
1.36854 	-54.826
1.37092 	-54.8079
1.3733 	-54.7897
1.37568 	-54.7714
1.37806 	-54.7531
1.38044 	-54.7348
1.38282 	-54.7164
1.3852 	-54.6979
1.38758 	-54.6794
1.38996 	-54.6608
1.39234 	-54.6422
1.39472 	-54.6235
1.3971 	-54.6048
1.39948 	-54.586
1.40186 	-54.5671
1.40424 	-54.5482
1.40662 	-54.5293
1.409 	-54.5103
1.41138 	-54.4912
1.41376 	-54.4721
1.41614 	-54.4529
1.41852 	-54.4337
1.4209 	-54.4144
1.42328 	-54.3951
1.42566 	-54.3757
1.42804 	-54.3562
1.43042 	-54.3367
1.4328 	-54.3172
1.43518 	-54.2976
1.43756 	-54.2779
1.43994 	-54.2582
1.44232 	-54.2384
1.4447 	-54.2185
1.44708 	-54.1986
1.44946 	-54.1787
1.45184 	-54.1586
1.45422 	-54.1386
1.4566 	-54.1184
1.45898 	-54.0982
1.46136 	-54.078
1.46374 	-54.0577
1.46612 	-54.0373
1.4685 	-54.0169
1.47088 	-53.9964
1.47326 	-53.9759
1.47564 	-53.9553
1.47802 	-53.9347
1.4804 	-53.914
1.48278 	-53.8932
1.48516 	-53.8724
1.48754 	-53.8515
1.48992 	-53.8305
1.4923 	-53.8095
1.49468 	-53.7885
1.49706 	-53.7673
1.49944 	-53.7461
1.50182 	-53.7249
1.5042 	-53.7036
1.50658 	-53.6822
1.50896 	-53.6608
1.51134 	-53.6393
1.51372 	-53.6178
1.5161 	-53.5962
1.51848 	-53.5745
1.52086 	-53.5528
1.52324 	-53.531
1.52562 	-53.5092
1.528 	-53.4873
1.53038 	-53.4653
1.53276 	-53.4433
1.53514 	-53.4212
1.53752 	-53.3991
1.5399 	-53.3768
1.54228 	-53.3546
1.54466 	-53.3322
1.54704 	-53.3098
1.54942 	-53.2874
1.5518 	-53.2649
1.55418 	-53.2423
1.55656 	-53.2196
1.55894 	-53.1969
1.56132 	-53.1742
1.5637 	-53.1513
1.56608 	-53.1285
1.56846 	-53.1055
1.57084 	-53.0825
1.57322 	-53.0594
1.5756 	-53.0363
1.57798 	-53.0131
1.58036 	-52.9898
1.58274 	-52.9665
1.58512 	-52.9431
1.5875 	-52.9196
1.58988 	-52.8961
1.59226 	-52.8725
1.59464 	-52.8488
1.59702 	-52.8251
1.5994 	-52.8014
1.60178 	-52.7775
1.60416 	-52.7536
1.60654 	-52.7296
1.60892 	-52.7056
1.6113 	-52.6815
1.61368 	-52.6573
1.61606 	-52.6331
1.61844 	-52.6088
1.62082 	-52.5845
1.6232 	-52.56
1.62558 	-52.5355
1.62796 	-52.511
1.63034 	-52.4864
1.63272 	-52.4617
1.6351 	-52.4369
1.63748 	-52.4121
1.63986 	-52.3872
1.64224 	-52.3623
1.64462 	-52.3373
1.647 	-52.3122
1.64938 	-52.287
1.65176 	-52.2618
1.65414 	-52.2365
1.65652 	-52.2112
1.6589 	-52.1858
1.66128 	-52.1603
1.66366 	-52.1348
1.66604 	-52.1092
1.66842 	-52.0835
1.6708 	-52.0577
1.67318 	-52.0319
1.67556 	-52.006
1.67794 	-51.9801
1.68032 	-51.9541
1.6827 	-51.928
1.68508 	-51.9018
1.68746 	-51.8756
1.68984 	-51.8493
1.69222 	-51.823
1.6946 	-51.7966
1.69698 	-51.7701
1.69936 	-51.7435
1.70174 	-51.7169
1.70412 	-51.6902
1.7065 	-51.6634
1.70888 	-51.6366
1.71126 	-51.6097
1.71364 	-51.5827
1.71602 	-51.5557
1.7184 	-51.5286
1.72078 	-51.5014
1.72316 	-51.4741
1.72554 	-51.4468
1.72792 	-51.4195
1.7303 	-51.392
1.73268 	-51.3645
1.73506 	-51.3369
1.73744 	-51.3092
1.73982 	-51.2815
1.7422 	-51.2537
1.74458 	-51.2258
1.74696 	-51.1979
1.74934 	-51.1699
1.75172 	-51.1418
1.7541 	-51.1136
1.75648 	-51.0854
1.75886 	-51.0571
1.76124 	-51.0288
1.76362 	-51.0003
1.766 	-50.9718
1.76838 	-50.9433
1.77076 	-50.9146
1.77314 	-50.8859
1.77552 	-50.8571
1.7779 	-50.8283
1.78028 	-50.7993
1.78266 	-50.7703
1.78504 	-50.7413
1.78742 	-50.7121
1.7898 	-50.6829
1.79218 	-50.6536
1.79456 	-50.6243
1.79694 	-50.5948
1.79932 	-50.5653
1.8017 	-50.5358
1.80408 	-50.5061
1.80646 	-50.4764
1.80884 	-50.4466
1.81122 	-50.4168
1.8136 	-50.3868
1.81598 	-50.3568
1.81836 	-50.3268
1.82074 	-50.2966
1.82312 	-50.2664
1.8255 	-50.2361
1.82788 	-50.2057
1.83026 	-50.1753
1.83264 	-50.1448
1.83502 	-50.1142
1.8374 	-50.0836
1.83978 	-50.0528
1.84216 	-50.022
1.84454 	-49.9912
1.84692 	-49.9602
1.8493 	-49.9292
1.85168 	-49.8981
1.85406 	-49.8669
1.85644 	-49.8357
1.85882 	-49.8044
1.8612 	-49.773
1.86358 	-49.7416
1.86596 	-49.71
1.86834 	-49.6784
1.87072 	-49.6467
1.8731 	-49.615
1.87548 	-49.5832
1.87786 	-49.5513
1.88024 	-49.5193
1.88262 	-49.4873
1.885 	-49.4551
1.88738 	-49.4229
1.88976 	-49.3907
1.89214 	-49.3583
1.89452 	-49.3259
1.8969 	-49.2934
1.89928 	-49.2609
1.90166 	-49.2282
1.90404 	-49.1955
1.90642 	-49.1627
1.9088 	-49.1299
1.91118 	-49.0969
1.91356 	-49.0639
1.91594 	-49.0309
1.91832 	-48.9977
1.9207 	-48.9645
1.92308 	-48.9312
1.92546 	-48.8978
1.92784 	-48.8643
1.93022 	-48.8308
1.9326 	-48.7972
1.93498 	-48.7635
1.93736 	-48.7298
1.93974 	-48.696
1.94212 	-48.6621
1.9445 	-48.6281
1.94688 	-48.594
1.94926 	-48.5599
1.95164 	-48.5257
1.95402 	-48.4914
1.9564 	-48.4571
1.95878 	-48.4227
1.96116 	-48.3882
1.96354 	-48.3536
1.96592 	-48.3189
1.9683 	-48.2842
1.97068 	-48.2494
1.97306 	-48.2145
1.97544 	-48.1796
1.97782 	-48.1446
1.9802 	-48.1095
1.98258 	-48.0743
1.98496 	-48.039
1.98734 	-48.0037
1.98972 	-47.9683
1.9921 	-47.9328
1.99448 	-47.8973
1.99686 	-47.8617
1.99924 	-47.826
2.00162 	-47.7902
2.004 	-47.7544
2.00638 	-47.7184
2.00876 	-47.6824
2.01114 	-47.6464
2.01352 	-47.6102
2.0159 	-47.574
2.01828 	-47.5377
2.02066 	-47.5013
2.02304 	-47.4649
2.02542 	-47.4283
2.0278 	-47.3917
2.03018 	-47.3551
2.03256 	-47.3183
2.03494 	-47.2815
2.03732 	-47.2446
2.0397 	-47.2076
2.04208 	-47.1706
2.04446 	-47.1334
2.04684 	-47.0962
2.04922 	-47.059
2.0516 	-47.0216
2.05398 	-46.9842
2.05636 	-46.9467
2.05874 	-46.9091
2.06112 	-46.8715
2.0635 	-46.8337
2.06588 	-46.7959
2.06826 	-46.7581
2.07064 	-46.7201
2.07302 	-46.6821
2.0754 	-46.644
2.07778 	-46.6058
2.08016 	-46.5676
2.08254 	-46.5293
2.08492 	-46.4909
2.0873 	-46.4524
2.08968 	-46.4138
2.09206 	-46.3752
2.09444 	-46.3365
2.09682 	-46.2977
2.0992 	-46.2589
2.10158 	-46.22
2.10396 	-46.181
2.10634 	-46.1419
2.10872 	-46.1028
2.1111 	-46.0636
2.11348 	-46.0243
2.11586 	-45.9849
2.11824 	-45.9455
2.12062 	-45.906
2.123 	-45.8664
2.12538 	-45.8267
2.12776 	-45.787
2.13014 	-45.7472
2.13252 	-45.7073
2.1349 	-45.6673
2.13728 	-45.6273
2.13966 	-45.5872
2.14204 	-45.547
2.14442 	-45.5068
2.1468 	-45.4664
2.14918 	-45.426
2.15156 	-45.3856
2.15394 	-45.345
2.15632 	-45.3044
2.1587 	-45.2637
2.16108 	-45.2229
2.16346 	-45.1821
2.16584 	-45.1412
2.16822 	-45.1002
2.1706 	-45.0592
2.17298 	-45.018
2.17536 	-44.9768
2.17774 	-44.9356
2.18012 	-44.8942
2.1825 	-44.8528
2.18488 	-44.8113
2.18726 	-44.7697
2.18964 	-44.7281
2.19202 	-44.6864
2.1944 	-44.6446
2.19678 	-44.6028
2.19916 	-44.5608
2.20154 	-44.5188
2.20392 	-44.4768
2.2063 	-44.4346
2.20868 	-44.3924
2.21106 	-44.3501
2.21344 	-44.3078
2.21582 	-44.2654
2.2182 	-44.2229
2.22058 	-44.1803
2.22296 	-44.1376
2.22534 	-44.0949
2.22772 	-44.0522
2.2301 	-44.0093
2.23248 	-43.9664
2.23486 	-43.9234
2.23724 	-43.8803
2.23962 	-43.8372
2.242 	-43.794
2.24438 	-43.7507
2.24676 	-43.7074
2.24914 	-43.664
2.25152 	-43.6205
2.2539 	-43.5769
2.25628 	-43.5333
2.25866 	-43.4896
2.26104 	-43.4459
2.26342 	-43.402
2.2658 	-43.3581
2.26818 	-43.3142
2.27056 	-43.2701
2.27294 	-43.226
2.27532 	-43.1818
2.2777 	-43.1376
2.28008 	-43.0933
2.28246 	-43.0489
2.28484 	-43.0045
2.28722 	-42.96
2.2896 	-42.9154
2.29198 	-42.8707
2.29436 	-42.826
2.29674 	-42.7812
2.29912 	-42.7364
2.3015 	-42.6914
2.30388 	-42.6465
2.30626 	-42.6014
2.30864 	-42.5563
2.31102 	-42.5111
2.3134 	-42.4658
2.31578 	-42.4205
2.31816 	-42.3751
2.32054 	-42.3297
2.32292 	-42.2842
2.3253 	-42.2386
2.32768 	-42.1929
2.33006 	-42.1472
2.33244 	-42.1015
2.33482 	-42.0556
2.3372 	-42.0097
2.33958 	-41.9637
2.34196 	-41.9177
2.34434 	-41.8716
2.34672 	-41.8254
2.3491 	-41.7792
2.35148 	-41.7329
2.35386 	-41.6865
2.35624 	-41.6401
2.35862 	-41.5936
2.361 	-41.5471
2.36338 	-41.5005
2.36576 	-41.4538
2.36814 	-41.4071
2.37052 	-41.3603
2.3729 	-41.3134
2.37528 	-41.2665
2.37766 	-41.2195
2.38004 	-41.1725
2.38242 	-41.1254
2.3848 	-41.0782
2.38718 	-41.031
2.38956 	-40.9837
2.39194 	-40.9363
2.39432 	-40.8889
2.3967 	-40.8414
2.39908 	-40.7939
2.40146 	-40.7463
2.40384 	-40.6986
2.40622 	-40.6509
2.4086 	-40.6032
2.41098 	-40.5553
2.41336 	-40.5074
2.41574 	-40.4595
2.41812 	-40.4115
2.4205 	-40.3634
2.42288 	-40.3153
2.42526 	-40.2671
2.42764 	-40.2189
2.43002 	-40.1706
2.4324 	-40.1222
2.43478 	-40.0738
2.43716 	-40.0253
2.43954 	-39.9768
2.44192 	-39.9282
2.4443 	-39.8796
2.44668 	-39.8309
2.44906 	-39.7821
2.45144 	-39.7333
2.45382 	-39.6844
2.4562 	-39.6355
2.45858 	-39.5865
2.46096 	-39.5375
2.46334 	-39.4884
2.46572 	-39.4393
2.4681 	-39.3901
2.47048 	-39.3408
2.47286 	-39.2915
2.47524 	-39.2422
2.47762 	-39.1928
2.48 	-39.1433
2.48238 	-39.0938
2.48476 	-39.0442
2.48714 	-38.9946
2.48952 	-38.945
2.4919 	-38.8952
2.49428 	-38.8455
2.49666 	-38.7956
2.49904 	-38.7458
2.50142 	-38.6958
2.5038 	-38.6459
2.50618 	-38.5958
2.50856 	-38.5457
2.51094 	-38.4956
2.51332 	-38.4454
2.5157 	-38.3952
2.51808 	-38.3449
2.52046 	-38.2946
2.52284 	-38.2442
2.52522 	-38.1938
2.5276 	-38.1433
2.52998 	-38.0928
2.53236 	-38.0423
2.53474 	-37.9916
2.53712 	-37.941
2.5395 	-37.8903
2.54188 	-37.8395
2.54426 	-37.7887
2.54664 	-37.7379
2.54902 	-37.687
2.5514 	-37.6361
2.55378 	-37.5851
2.55616 	-37.534
2.55854 	-37.483
2.56092 	-37.4319
2.5633 	-37.3807
2.56568 	-37.3295
2.56806 	-37.2782
2.57044 	-37.227
2.57282 	-37.1756
2.5752 	-37.1242
2.57758 	-37.0728
2.57996 	-37.0214
2.58234 	-36.9699
2.58472 	-36.9183
2.5871 	-36.8667
2.58948 	-36.8151
2.59186 	-36.7634
2.59424 	-36.7117
2.59662 	-36.66
2.599 	-36.6082
2.60138 	-36.5564
2.60376 	-36.5045
2.60614 	-36.4526
2.60852 	-36.4006
2.6109 	-36.3487
2.61328 	-36.2966
2.61566 	-36.2446
2.61804 	-36.1925
2.62042 	-36.1403
2.6228 	-36.0882
2.62518 	-36.036
2.62756 	-35.9837
2.62994 	-35.9314
2.63232 	-35.8791
2.6347 	-35.8268
2.63708 	-35.7744
2.63946 	-35.722
2.64184 	-35.6695
2.64422 	-35.617
2.6466 	-35.5645
2.64898 	-35.5119
2.65136 	-35.4593
2.65374 	-35.4067
2.65612 	-35.3541
2.6585 	-35.3014
2.66088 	-35.2486
2.66326 	-35.1959
2.66564 	-35.1431
2.66802 	-35.0903
2.6704 	-35.0374
2.67278 	-34.9846
2.67516 	-34.9317
2.67754 	-34.8787
2.67992 	-34.8258
2.6823 	-34.7728
2.68468 	-34.7197
2.68706 	-34.6667
2.68944 	-34.6136
2.69182 	-34.5605
2.6942 	-34.5073
2.69658 	-34.4542
2.69896 	-34.401
2.70134 	-34.3478
2.70372 	-34.2945
2.7061 	-34.2412
2.70848 	-34.188
2.71086 	-34.1346
2.71324 	-34.0813
2.71562 	-34.0279
2.718 	-33.9745
2.72038 	-33.9211
2.72276 	-33.8676
2.72514 	-33.8142
2.72752 	-33.7607
2.7299 	-33.7072
2.73228 	-33.6536
2.73466 	-33.6001
2.73704 	-33.5465
2.73942 	-33.4929
2.7418 	-33.4393
2.74418 	-33.3856
2.74656 	-33.332
2.74894 	-33.2783
2.75132 	-33.2246
2.7537 	-33.1708
2.75608 	-33.1171
2.75846 	-33.0633
