# Mass = 0.0441503 Mev*(hbarc)^2/2 
# R = 2.88468 fm 
# a = 0.662 fm 
# V0 = 60.3743 MeV 
# RSO = 2.65116 fm 
# aSO = 0.662 fm 
# VSO = 32.9592 MeV fm^2
# l = 1 
# two_j = 3 
# two_t = 1 
# Energy = -18.8508 MeV
# r 	 V_eff [2m/hbar/hbar]
0.1 	4465.43
0.10238 	4257.37
0.10476 	4063.33
0.10714 	3882.07
0.10952 	3712.51
0.1119 	3553.65
0.11428 	3404.62
0.11666 	3264.62
0.11904 	3132.93
0.12142 	3008.91
0.1238 	2891.98
0.12618 	2781.6
0.12856 	2677.29
0.13094 	2578.63
0.13332 	2485.2
0.1357 	2396.64
0.13808 	2312.63
0.14046 	2232.85
0.14284 	2157.02
0.14522 	2084.9
0.1476 	2016.23
0.14998 	1950.81
0.15236 	1888.44
0.15474 	1828.92
0.15712 	1772.08
0.1595 	1717.77
0.16188 	1665.84
0.16426 	1616.15
0.16664 	1568.57
0.16902 	1523
0.1714 	1479.3
0.17378 	1437.39
0.17616 	1397.17
0.17854 	1358.55
0.18092 	1321.44
0.1833 	1285.77
0.18568 	1251.46
0.18806 	1218.44
0.19044 	1186.66
0.19282 	1156.05
0.1952 	1126.55
0.19758 	1098.11
0.19996 	1070.68
0.20234 	1044.21
0.20472 	1018.66
0.2071 	993.988
0.20948 	970.151
0.21186 	947.114
0.21424 	924.84
0.21662 	903.297
0.219 	882.453
0.22138 	862.278
0.22376 	842.743
0.22614 	823.822
0.22852 	805.49
0.2309 	787.721
0.23328 	770.495
0.23566 	753.787
0.23804 	737.579
0.24042 	721.85
0.2428 	706.581
0.24518 	691.755
0.24756 	677.355
0.24994 	663.365
0.25232 	649.769
0.2547 	636.552
0.25708 	623.701
0.25946 	611.202
0.26184 	599.043
0.26422 	587.211
0.2666 	575.695
0.26898 	564.483
0.27136 	553.565
0.27374 	542.931
0.27612 	532.571
0.2785 	522.476
0.28088 	512.636
0.28326 	503.044
0.28564 	493.69
0.28802 	484.568
0.2904 	475.669
0.29278 	466.986
0.29516 	458.513
0.29754 	450.243
0.29992 	442.169
0.3023 	434.284
0.30468 	426.585
0.30706 	419.063
0.30944 	411.715
0.31182 	404.534
0.3142 	397.516
0.31658 	390.656
0.31896 	383.949
0.32134 	377.391
0.32372 	370.977
0.3261 	364.703
0.32848 	358.565
0.33086 	352.56
0.33324 	346.682
0.33562 	340.93
0.338 	335.298
0.34038 	329.785
0.34276 	324.386
0.34514 	319.098
0.34752 	313.919
0.3499 	308.845
0.35228 	303.874
0.35466 	299.003
0.35704 	294.229
0.35942 	289.55
0.3618 	284.963
0.36418 	280.465
0.36656 	276.055
0.36894 	271.731
0.37132 	267.489
0.3737 	263.328
0.37608 	259.246
0.37846 	255.241
0.38084 	251.311
0.38322 	247.454
0.3856 	243.668
0.38798 	239.952
0.39036 	236.304
0.39274 	232.722
0.39512 	229.204
0.3975 	225.75
0.39988 	222.358
0.40226 	219.025
0.40464 	215.751
0.40702 	212.535
0.4094 	209.375
0.41178 	206.269
0.41416 	203.217
0.41654 	200.217
0.41892 	197.269
0.4213 	194.37
0.42368 	191.52
0.42606 	188.718
0.42844 	185.962
0.43082 	183.252
0.4332 	180.587
0.43558 	177.965
0.43796 	175.386
0.44034 	172.849
0.44272 	170.353
0.4451 	167.897
0.44748 	165.48
0.44986 	163.102
0.45224 	160.761
0.45462 	158.456
0.457 	156.188
0.45938 	153.955
0.46176 	151.757
0.46414 	149.592
0.46652 	147.461
0.4689 	145.362
0.47128 	143.294
0.47366 	141.258
0.47604 	139.253
0.47842 	137.277
0.4808 	135.331
0.48318 	133.414
0.48556 	131.525
0.48794 	129.663
0.49032 	127.829
0.4927 	126.021
0.49508 	124.24
0.49746 	122.484
0.49984 	120.753
0.50222 	119.046
0.5046 	117.364
0.50698 	115.706
0.50936 	114.071
0.51174 	112.459
0.51412 	110.869
0.5165 	109.301
0.51888 	107.755
0.52126 	106.23
0.52364 	104.726
0.52602 	103.242
0.5284 	101.779
0.53078 	100.335
0.53316 	98.9106
0.53554 	97.5052
0.53792 	96.1185
0.5403 	94.7502
0.54268 	93.3999
0.54506 	92.0674
0.54744 	90.7523
0.54982 	89.4544
0.5522 	88.1732
0.55458 	86.9086
0.55696 	85.6603
0.55934 	84.428
0.56172 	83.2114
0.5641 	82.0102
0.56648 	80.8243
0.56886 	79.6532
0.57124 	78.4969
0.57362 	77.355
0.576 	76.2274
0.57838 	75.1137
0.58076 	74.0138
0.58314 	72.9274
0.58552 	71.8543
0.5879 	70.7943
0.59028 	69.7471
0.59266 	68.7127
0.59504 	67.6907
0.59742 	66.681
0.5998 	65.6834
0.60218 	64.6977
0.60456 	63.7237
0.60694 	62.7612
0.60932 	61.81
0.6117 	60.87
0.61408 	59.941
0.61646 	59.0229
0.61884 	58.1154
0.62122 	57.2184
0.6236 	56.3317
0.62598 	55.4552
0.62836 	54.5887
0.63074 	53.7321
0.63312 	52.8853
0.6355 	52.048
0.63788 	51.2201
0.64026 	50.4016
0.64264 	49.5922
0.64502 	48.7918
0.6474 	48.0004
0.64978 	47.2177
0.65216 	46.4437
0.65454 	45.6781
0.65692 	44.921
0.6593 	44.1721
0.66168 	43.4314
0.66406 	42.6987
0.66644 	41.9739
0.66882 	41.257
0.6712 	40.5477
0.67358 	39.846
0.67596 	39.1518
0.67834 	38.465
0.68072 	37.7855
0.6831 	37.1132
0.68548 	36.4479
0.68786 	35.7896
0.69024 	35.1382
0.69262 	34.4935
0.695 	33.8556
0.69738 	33.2243
0.69976 	32.5995
0.70214 	31.9811
0.70452 	31.3691
0.7069 	30.7633
0.70928 	30.1637
0.71166 	29.5702
0.71404 	28.9827
0.71642 	28.4011
0.7188 	27.8254
0.72118 	27.2554
0.72356 	26.6912
0.72594 	26.1326
0.72832 	25.5795
0.7307 	25.032
0.73308 	24.4898
0.73546 	23.953
0.73784 	23.4214
0.74022 	22.8951
0.7426 	22.3739
0.74498 	21.8577
0.74736 	21.3466
0.74974 	20.8404
0.75212 	20.3391
0.7545 	19.8426
0.75688 	19.3509
0.75926 	18.8639
0.76164 	18.3816
0.76402 	17.9038
0.7664 	17.4306
0.76878 	16.9618
0.77116 	16.4975
0.77354 	16.0375
0.77592 	15.5818
0.7783 	15.1304
0.78068 	14.6832
0.78306 	14.2402
0.78544 	13.8013
0.78782 	13.3664
0.7902 	12.9356
0.79258 	12.5087
0.79496 	12.0857
0.79734 	11.6666
0.79972 	11.2513
0.8021 	10.8398
0.80448 	10.4321
0.80686 	10.028
0.80924 	9.62758
0.81162 	9.23076
0.814 	8.83751
0.81638 	8.44778
0.81876 	8.06154
0.82114 	7.67874
0.82352 	7.29934
0.8259 	6.92331
0.82828 	6.5506
0.83066 	6.18118
0.83304 	5.81502
0.83542 	5.45207
0.8378 	5.09229
0.84018 	4.73566
0.84256 	4.38214
0.84494 	4.0317
0.84732 	3.68429
0.8497 	3.33989
0.85208 	2.99846
0.85446 	2.65997
0.85684 	2.32438
0.85922 	1.99168
0.8616 	1.66182
0.86398 	1.33477
0.86636 	1.0105
0.86874 	0.688991
0.87112 	0.370202
0.8735 	0.0541075
0.87588 	-0.259322
0.87826 	-0.570115
0.88064 	-0.878299
0.88302 	-1.1839
0.8854 	-1.48695
0.88778 	-1.78747
0.89016 	-2.0855
0.89254 	-2.38105
0.89492 	-2.67415
0.8973 	-2.96483
0.89968 	-3.25311
0.90206 	-3.53902
0.90444 	-3.82258
0.90682 	-4.10382
0.9092 	-4.38275
0.91158 	-4.65942
0.91396 	-4.93383
0.91634 	-5.20601
0.91872 	-5.47598
0.9211 	-5.74377
0.92348 	-6.0094
0.92586 	-6.27288
0.92824 	-6.53425
0.93062 	-6.79352
0.933 	-7.05071
0.93538 	-7.30584
0.93776 	-7.55894
0.94014 	-7.81003
0.94252 	-8.05911
0.9449 	-8.30623
0.94728 	-8.55138
0.94966 	-8.7946
0.95204 	-9.0359
0.95442 	-9.2753
0.9568 	-9.51282
0.95918 	-9.74848
0.96156 	-9.98229
0.96394 	-10.2143
0.96632 	-10.4444
0.9687 	-10.6728
0.97108 	-10.8994
0.97346 	-11.1243
0.97584 	-11.3474
0.97822 	-11.5688
0.9806 	-11.7885
0.98298 	-12.0064
0.98536 	-12.2227
0.98774 	-12.4374
0.99012 	-12.6504
0.9925 	-12.8618
0.99488 	-13.0715
0.99726 	-13.2797
0.99964 	-13.4862
1.00202 	-13.6912
1.0044 	-13.8947
1.00678 	-14.0966
1.00916 	-14.297
1.01154 	-14.4958
1.01392 	-14.6932
1.0163 	-14.8891
1.01868 	-15.0835
1.02106 	-15.2764
1.02344 	-15.4679
1.02582 	-15.658
1.0282 	-15.8466
1.03058 	-16.0339
1.03296 	-16.2197
1.03534 	-16.4042
1.03772 	-16.5873
1.0401 	-16.769
1.04248 	-16.9494
1.04486 	-17.1284
1.04724 	-17.3061
1.04962 	-17.4826
1.052 	-17.6577
1.05438 	-17.8315
1.05676 	-18.004
1.05914 	-18.1753
1.06152 	-18.3454
1.0639 	-18.5141
1.06628 	-18.6817
1.06866 	-18.848
1.07104 	-19.0131
1.07342 	-19.177
1.0758 	-19.3397
1.07818 	-19.5013
1.08056 	-19.6616
1.08294 	-19.8208
1.08532 	-19.9789
1.0877 	-20.1358
1.09008 	-20.2916
1.09246 	-20.4462
1.09484 	-20.5997
1.09722 	-20.7522
1.0996 	-20.9035
1.10198 	-21.0537
1.10436 	-21.2029
1.10674 	-21.351
1.10912 	-21.498
1.1115 	-21.644
1.11388 	-21.7889
1.11626 	-21.9328
1.11864 	-22.0757
1.12102 	-22.2175
1.1234 	-22.3584
1.12578 	-22.4982
1.12816 	-22.6371
1.13054 	-22.7749
1.13292 	-22.9118
1.1353 	-23.0477
1.13768 	-23.1827
1.14006 	-23.3167
1.14244 	-23.4497
1.14482 	-23.5818
1.1472 	-23.713
1.14958 	-23.8432
1.15196 	-23.9725
1.15434 	-24.1009
1.15672 	-24.2284
1.1591 	-24.3551
1.16148 	-24.4808
1.16386 	-24.6056
1.16624 	-24.7296
1.16862 	-24.8526
1.171 	-24.9749
1.17338 	-25.0962
1.17576 	-25.2167
1.17814 	-25.3364
1.18052 	-25.4552
1.1829 	-25.5732
1.18528 	-25.6904
1.18766 	-25.8067
1.19004 	-25.9223
1.19242 	-26.037
1.1948 	-26.1509
1.19718 	-26.2641
1.19956 	-26.3764
1.20194 	-26.488
1.20432 	-26.5988
1.2067 	-26.7088
1.20908 	-26.818
1.21146 	-26.9265
1.21384 	-27.0342
1.21622 	-27.1412
1.2186 	-27.2474
1.22098 	-27.3529
1.22336 	-27.4577
1.22574 	-27.5617
1.22812 	-27.665
1.2305 	-27.7676
1.23288 	-27.8694
1.23526 	-27.9706
1.23764 	-28.071
1.24002 	-28.1708
1.2424 	-28.2699
1.24478 	-28.3682
1.24716 	-28.4659
1.24954 	-28.5629
1.25192 	-28.6593
1.2543 	-28.7549
1.25668 	-28.8499
1.25906 	-28.9442
1.26144 	-29.0379
1.26382 	-29.1309
1.2662 	-29.2233
1.26858 	-29.3151
1.27096 	-29.4062
1.27334 	-29.4966
1.27572 	-29.5864
1.2781 	-29.6756
1.28048 	-29.7642
1.28286 	-29.8522
1.28524 	-29.9395
1.28762 	-30.0263
1.29 	-30.1124
1.29238 	-30.1979
1.29476 	-30.2829
1.29714 	-30.3672
1.29952 	-30.451
1.3019 	-30.5341
1.30428 	-30.6167
1.30666 	-30.6987
1.30904 	-30.7801
1.31142 	-30.861
1.3138 	-30.9413
1.31618 	-31.021
1.31856 	-31.1001
1.32094 	-31.1787
1.32332 	-31.2568
1.3257 	-31.3343
1.32808 	-31.4112
1.33046 	-31.4876
1.33284 	-31.5635
1.33522 	-31.6388
1.3376 	-31.7136
1.33998 	-31.7879
1.34236 	-31.8617
1.34474 	-31.9349
1.34712 	-32.0076
1.3495 	-32.0798
1.35188 	-32.1514
1.35426 	-32.2226
1.35664 	-32.2932
1.35902 	-32.3634
1.3614 	-32.433
1.36378 	-32.5022
1.36616 	-32.5708
1.36854 	-32.639
1.37092 	-32.7066
1.3733 	-32.7738
1.37568 	-32.8405
1.37806 	-32.9067
1.38044 	-32.9724
1.38282 	-33.0377
1.3852 	-33.1025
1.38758 	-33.1668
1.38996 	-33.2306
1.39234 	-33.294
1.39472 	-33.3569
1.3971 	-33.4194
1.39948 	-33.4814
1.40186 	-33.543
1.40424 	-33.6041
1.40662 	-33.6647
1.409 	-33.7249
1.41138 	-33.7847
1.41376 	-33.844
1.41614 	-33.9029
1.41852 	-33.9613
1.4209 	-34.0193
1.42328 	-34.0769
1.42566 	-34.134
1.42804 	-34.1907
1.43042 	-34.247
1.4328 	-34.3029
1.43518 	-34.3583
1.43756 	-34.4134
1.43994 	-34.468
1.44232 	-34.5222
1.4447 	-34.576
1.44708 	-34.6294
1.44946 	-34.6823
1.45184 	-34.7349
1.45422 	-34.7871
1.4566 	-34.8388
1.45898 	-34.8902
1.46136 	-34.9412
1.46374 	-34.9917
1.46612 	-35.0419
1.4685 	-35.0917
1.47088 	-35.1411
1.47326 	-35.1901
1.47564 	-35.2388
1.47802 	-35.287
1.4804 	-35.3349
1.48278 	-35.3824
1.48516 	-35.4295
1.48754 	-35.4762
1.48992 	-35.5226
1.4923 	-35.5686
1.49468 	-35.6142
1.49706 	-35.6595
1.49944 	-35.7044
1.50182 	-35.7489
1.5042 	-35.7931
1.50658 	-35.8369
1.50896 	-35.8803
1.51134 	-35.9234
1.51372 	-35.9661
1.5161 	-36.0085
1.51848 	-36.0506
1.52086 	-36.0922
1.52324 	-36.1336
1.52562 	-36.1746
1.528 	-36.2152
1.53038 	-36.2555
1.53276 	-36.2955
1.53514 	-36.3351
1.53752 	-36.3743
1.5399 	-36.4133
1.54228 	-36.4519
1.54466 	-36.4902
1.54704 	-36.5281
1.54942 	-36.5657
1.5518 	-36.603
1.55418 	-36.6399
1.55656 	-36.6765
1.55894 	-36.7128
1.56132 	-36.7488
1.5637 	-36.7845
1.56608 	-36.8198
1.56846 	-36.8548
1.57084 	-36.8895
1.57322 	-36.9239
1.5756 	-36.9579
1.57798 	-36.9917
1.58036 	-37.0251
1.58274 	-37.0582
1.58512 	-37.091
1.5875 	-37.1235
1.58988 	-37.1557
1.59226 	-37.1876
1.59464 	-37.2192
1.59702 	-37.2505
1.5994 	-37.2815
1.60178 	-37.3121
1.60416 	-37.3425
1.60654 	-37.3726
1.60892 	-37.4024
1.6113 	-37.4319
1.61368 	-37.4611
1.61606 	-37.49
1.61844 	-37.5186
1.62082 	-37.5469
1.6232 	-37.5749
1.62558 	-37.6027
1.62796 	-37.6301
1.63034 	-37.6573
1.63272 	-37.6842
1.6351 	-37.7108
1.63748 	-37.7371
1.63986 	-37.7631
1.64224 	-37.7888
1.64462 	-37.8143
1.647 	-37.8395
1.64938 	-37.8644
1.65176 	-37.8891
1.65414 	-37.9134
1.65652 	-37.9375
1.6589 	-37.9613
1.66128 	-37.9849
1.66366 	-38.0081
1.66604 	-38.0311
1.66842 	-38.0539
1.6708 	-38.0763
1.67318 	-38.0985
1.67556 	-38.1204
1.67794 	-38.1421
1.68032 	-38.1635
1.6827 	-38.1846
1.68508 	-38.2055
1.68746 	-38.2261
1.68984 	-38.2465
1.69222 	-38.2666
1.6946 	-38.2864
1.69698 	-38.306
1.69936 	-38.3253
1.70174 	-38.3443
1.70412 	-38.3631
1.7065 	-38.3817
1.70888 	-38.4
1.71126 	-38.418
1.71364 	-38.4358
1.71602 	-38.4534
1.7184 	-38.4707
1.72078 	-38.4877
1.72316 	-38.5045
1.72554 	-38.521
1.72792 	-38.5373
1.7303 	-38.5534
1.73268 	-38.5692
1.73506 	-38.5848
1.73744 	-38.6001
1.73982 	-38.6152
1.7422 	-38.63
1.74458 	-38.6446
1.74696 	-38.659
1.74934 	-38.6731
1.75172 	-38.687
1.7541 	-38.7006
1.75648 	-38.714
1.75886 	-38.7272
1.76124 	-38.7401
1.76362 	-38.7528
1.766 	-38.7653
1.76838 	-38.7775
1.77076 	-38.7895
1.77314 	-38.8013
1.77552 	-38.8128
1.7779 	-38.8241
1.78028 	-38.8352
1.78266 	-38.8461
1.78504 	-38.8567
1.78742 	-38.8671
1.7898 	-38.8772
1.79218 	-38.8872
1.79456 	-38.8969
1.79694 	-38.9064
1.79932 	-38.9156
1.8017 	-38.9247
1.80408 	-38.9335
1.80646 	-38.9421
1.80884 	-38.9505
1.81122 	-38.9586
1.8136 	-38.9665
1.81598 	-38.9742
1.81836 	-38.9817
1.82074 	-38.989
1.82312 	-38.9961
1.8255 	-39.0029
1.82788 	-39.0095
1.83026 	-39.0159
1.83264 	-39.0221
1.83502 	-39.0281
1.8374 	-39.0339
1.83978 	-39.0394
1.84216 	-39.0448
1.84454 	-39.0499
1.84692 	-39.0548
1.8493 	-39.0595
1.85168 	-39.064
1.85406 	-39.0683
1.85644 	-39.0723
1.85882 	-39.0762
1.8612 	-39.0799
1.86358 	-39.0833
1.86596 	-39.0866
1.86834 	-39.0896
1.87072 	-39.0924
1.8731 	-39.095
1.87548 	-39.0974
1.87786 	-39.0997
1.88024 	-39.1017
1.88262 	-39.1035
1.885 	-39.1051
1.88738 	-39.1065
1.88976 	-39.1077
1.89214 	-39.1087
1.89452 	-39.1095
1.8969 	-39.1101
1.89928 	-39.1105
1.90166 	-39.1107
1.90404 	-39.1107
1.90642 	-39.1105
1.9088 	-39.1101
1.91118 	-39.1095
1.91356 	-39.1087
1.91594 	-39.1077
1.91832 	-39.1065
1.9207 	-39.1051
1.92308 	-39.1035
1.92546 	-39.1018
1.92784 	-39.0998
1.93022 	-39.0977
1.9326 	-39.0953
1.93498 	-39.0928
1.93736 	-39.09
1.93974 	-39.0871
1.94212 	-39.084
1.9445 	-39.0807
1.94688 	-39.0772
1.94926 	-39.0735
1.95164 	-39.0696
1.95402 	-39.0656
1.9564 	-39.0613
1.95878 	-39.0569
1.96116 	-39.0523
1.96354 	-39.0475
1.96592 	-39.0425
1.9683 	-39.0373
1.97068 	-39.0319
1.97306 	-39.0263
1.97544 	-39.0206
1.97782 	-39.0147
1.9802 	-39.0086
1.98258 	-39.0023
1.98496 	-38.9958
1.98734 	-38.9891
1.98972 	-38.9823
1.9921 	-38.9753
1.99448 	-38.9681
1.99686 	-38.9607
1.99924 	-38.9531
2.00162 	-38.9454
2.004 	-38.9375
2.00638 	-38.9294
2.00876 	-38.9211
2.01114 	-38.9126
2.01352 	-38.904
2.0159 	-38.8952
2.01828 	-38.8862
2.02066 	-38.877
2.02304 	-38.8676
2.02542 	-38.8581
2.0278 	-38.8484
2.03018 	-38.8386
2.03256 	-38.8285
2.03494 	-38.8183
2.03732 	-38.8079
2.0397 	-38.7973
2.04208 	-38.7866
2.04446 	-38.7756
2.04684 	-38.7646
2.04922 	-38.7533
2.0516 	-38.7419
2.05398 	-38.7303
2.05636 	-38.7185
2.05874 	-38.7065
2.06112 	-38.6944
2.0635 	-38.6821
2.06588 	-38.6697
2.06826 	-38.6571
2.07064 	-38.6443
2.07302 	-38.6313
2.0754 	-38.6182
2.07778 	-38.6049
2.08016 	-38.5914
2.08254 	-38.5778
2.08492 	-38.564
2.0873 	-38.55
2.08968 	-38.5359
2.09206 	-38.5216
2.09444 	-38.5071
2.09682 	-38.4925
2.0992 	-38.4777
2.10158 	-38.4628
2.10396 	-38.4476
2.10634 	-38.4324
2.10872 	-38.4169
2.1111 	-38.4013
2.11348 	-38.3855
2.11586 	-38.3696
2.11824 	-38.3535
2.12062 	-38.3373
2.123 	-38.3209
2.12538 	-38.3043
2.12776 	-38.2876
2.13014 	-38.2707
2.13252 	-38.2536
2.1349 	-38.2364
2.13728 	-38.219
2.13966 	-38.2015
2.14204 	-38.1838
2.14442 	-38.166
2.1468 	-38.148
2.14918 	-38.1298
2.15156 	-38.1115
2.15394 	-38.093
2.15632 	-38.0744
2.1587 	-38.0556
2.16108 	-38.0367
2.16346 	-38.0176
2.16584 	-37.9983
2.16822 	-37.9789
2.1706 	-37.9594
2.17298 	-37.9397
2.17536 	-37.9198
2.17774 	-37.8998
2.18012 	-37.8797
2.1825 	-37.8593
2.18488 	-37.8389
2.18726 	-37.8182
2.18964 	-37.7975
2.19202 	-37.7766
2.1944 	-37.7555
2.19678 	-37.7343
2.19916 	-37.7129
2.20154 	-37.6914
2.20392 	-37.6697
2.2063 	-37.6479
2.20868 	-37.6259
2.21106 	-37.6038
2.21344 	-37.5815
2.21582 	-37.5591
2.2182 	-37.5366
2.22058 	-37.5139
2.22296 	-37.491
2.22534 	-37.468
2.22772 	-37.4449
2.2301 	-37.4216
2.23248 	-37.3982
2.23486 	-37.3746
2.23724 	-37.3509
2.23962 	-37.327
2.242 	-37.303
2.24438 	-37.2789
2.24676 	-37.2546
2.24914 	-37.2302
2.25152 	-37.2056
2.2539 	-37.1809
2.25628 	-37.156
2.25866 	-37.131
2.26104 	-37.1059
2.26342 	-37.0806
2.2658 	-37.0552
2.26818 	-37.0296
2.27056 	-37.0039
2.27294 	-36.9781
2.27532 	-36.9521
2.2777 	-36.926
2.28008 	-36.8998
2.28246 	-36.8734
2.28484 	-36.8468
2.28722 	-36.8202
2.2896 	-36.7934
2.29198 	-36.7665
2.29436 	-36.7394
2.29674 	-36.7122
2.29912 	-36.6848
2.3015 	-36.6574
2.30388 	-36.6298
2.30626 	-36.602
2.30864 	-36.5741
2.31102 	-36.5461
2.3134 	-36.518
2.31578 	-36.4897
2.31816 	-36.4613
2.32054 	-36.4328
2.32292 	-36.4041
2.3253 	-36.3753
2.32768 	-36.3464
2.33006 	-36.3173
2.33244 	-36.2881
2.33482 	-36.2588
2.3372 	-36.2293
2.33958 	-36.1997
2.34196 	-36.17
2.34434 	-36.1402
2.34672 	-36.1102
2.3491 	-36.0801
2.35148 	-36.0499
2.35386 	-36.0196
2.35624 	-35.9891
2.35862 	-35.9585
2.361 	-35.9278
2.36338 	-35.8969
2.36576 	-35.8659
2.36814 	-35.8348
2.37052 	-35.8036
2.3729 	-35.7723
2.37528 	-35.7408
2.37766 	-35.7092
2.38004 	-35.6775
2.38242 	-35.6456
2.3848 	-35.6137
2.38718 	-35.5816
2.38956 	-35.5494
2.39194 	-35.5171
2.39432 	-35.4846
2.3967 	-35.4521
2.39908 	-35.4194
2.40146 	-35.3866
2.40384 	-35.3536
2.40622 	-35.3206
2.4086 	-35.2874
2.41098 	-35.2542
2.41336 	-35.2208
2.41574 	-35.1872
2.41812 	-35.1536
2.4205 	-35.1199
2.42288 	-35.086
2.42526 	-35.052
2.42764 	-35.0179
2.43002 	-34.9837
2.4324 	-34.9494
2.43478 	-34.915
2.43716 	-34.8804
2.43954 	-34.8457
2.44192 	-34.811
2.4443 	-34.7761
2.44668 	-34.7411
2.44906 	-34.7059
2.45144 	-34.6707
2.45382 	-34.6354
2.4562 	-34.5999
2.45858 	-34.5644
2.46096 	-34.5287
2.46334 	-34.4929
2.46572 	-34.457
2.4681 	-34.4211
2.47048 	-34.3849
2.47286 	-34.3487
2.47524 	-34.3124
2.47762 	-34.276
2.48 	-34.2395
2.48238 	-34.2028
2.48476 	-34.1661
2.48714 	-34.1292
2.48952 	-34.0923
2.4919 	-34.0552
2.49428 	-34.0181
2.49666 	-33.9808
2.49904 	-33.9434
2.50142 	-33.9059
2.5038 	-33.8684
2.50618 	-33.8307
2.50856 	-33.7929
2.51094 	-33.755
2.51332 	-33.717
2.5157 	-33.679
2.51808 	-33.6408
2.52046 	-33.6025
2.52284 	-33.5641
2.52522 	-33.5256
2.5276 	-33.487
2.52998 	-33.4484
2.53236 	-33.4096
2.53474 	-33.3707
2.53712 	-33.3317
2.5395 	-33.2927
2.54188 	-33.2535
2.54426 	-33.2143
2.54664 	-33.1749
2.54902 	-33.1355
2.5514 	-33.0959
2.55378 	-33.0563
2.55616 	-33.0165
2.55854 	-32.9767
2.56092 	-32.9368
2.5633 	-32.8968
2.56568 	-32.8567
2.56806 	-32.8165
2.57044 	-32.7762
2.57282 	-32.7359
2.5752 	-32.6954
2.57758 	-32.6548
2.57996 	-32.6142
2.58234 	-32.5735
2.58472 	-32.5326
2.5871 	-32.4917
2.58948 	-32.4507
2.59186 	-32.4097
2.59424 	-32.3685
2.59662 	-32.3272
2.599 	-32.2859
2.60138 	-32.2445
2.60376 	-32.203
2.60614 	-32.1614
2.60852 	-32.1197
2.6109 	-32.0779
2.61328 	-32.0361
2.61566 	-31.9942
2.61804 	-31.9522
2.62042 	-31.9101
2.6228 	-31.8679
2.62518 	-31.8256
2.62756 	-31.7833
2.62994 	-31.7409
2.63232 	-31.6984
2.6347 	-31.6558
2.63708 	-31.6132
2.63946 	-31.5704
2.64184 	-31.5276
2.64422 	-31.4847
2.6466 	-31.4418
2.64898 	-31.3987
2.65136 	-31.3556
2.65374 	-31.3124
2.65612 	-31.2692
2.6585 	-31.2258
2.66088 	-31.1824
2.66326 	-31.1389
2.66564 	-31.0954
2.66802 	-31.0517
2.6704 	-31.008
2.67278 	-30.9643
2.67516 	-30.9204
2.67754 	-30.8765
2.67992 	-30.8325
2.6823 	-30.7884
2.68468 	-30.7443
2.68706 	-30.7001
2.68944 	-30.6558
2.69182 	-30.6115
2.6942 	-30.5671
2.69658 	-30.5226
2.69896 	-30.4781
2.70134 	-30.4335
2.70372 	-30.3888
2.7061 	-30.3441
2.70848 	-30.2993
2.71086 	-30.2544
2.71324 	-30.2095
2.71562 	-30.1645
2.718 	-30.1194
2.72038 	-30.0743
2.72276 	-30.0291
2.72514 	-29.9839
2.72752 	-29.9386
2.7299 	-29.8932
2.73228 	-29.8478
2.73466 	-29.8023
2.73704 	-29.7568
2.73942 	-29.7111
2.7418 	-29.6655
2.74418 	-29.6198
2.74656 	-29.574
2.74894 	-29.5282
2.75132 	-29.4823
2.7537 	-29.4363
2.75608 	-29.3903
2.75846 	-29.3442
2.76084 	-29.2981
2.76322 	-29.252
2.7656 	-29.2057
2.76798 	-29.1595
2.77036 	-29.1131
2.77274 	-29.0668
2.77512 	-29.0203
2.7775 	-28.9739
2.77988 	-28.9273
2.78226 	-28.8807
2.78464 	-28.8341
2.78702 	-28.7874
2.7894 	-28.7407
2.79178 	-28.6939
2.79416 	-28.6471
2.79654 	-28.6002
2.79892 	-28.5533
2.8013 	-28.5063
