# Mass = 0.0479598 Mev*(hbarc)^2/2 
# R = 7.46549 fm 
# a = 0.662 fm 
# V0 = 59.5746 MeV 
# RSO = 6.86114 fm 
# aSO = 0.662 fm 
# VSO = 27.9312 MeV fm^2
# n = 2 
# l = 2 
# two_j = 3 
# two_t = 1 
# Energy = -9.94773 MeV
# r          u            Phi          u/r          
0.1          0.000102205  2.53078e-05  0.00102205   
0.10238      0.000109677  2.65219e-05  0.00107127   
0.10476      0.000117503  2.77642e-05  0.00112164   
0.10714      0.000125691  2.90348e-05  0.00117314   
0.10952      0.000134249  3.03336e-05  0.0012258    
0.1119       0.000143187  3.16607e-05  0.00127959   
0.11428      0.000152511  3.30159e-05  0.00133453   
0.11666      0.000162229  3.43993e-05  0.00139062   
0.11904      0.000172351  3.58107e-05  0.00144784   
0.12142      0.000182884  3.72503e-05  0.00150621   
0.1238       0.000193836  3.87179e-05  0.00156572   
0.12618      0.000205215  4.02135e-05  0.00162637   
0.12856      0.000217029  4.17371e-05  0.00168816   
0.13094      0.000229287  4.32887e-05  0.00175108   
0.13332      0.000241996  4.48682e-05  0.00181515   
0.1357       0.000255165  4.64756e-05  0.00188036   
0.13808      0.000268801  4.81108e-05  0.0019467    
0.14046      0.000282913  4.97739e-05  0.00201419   
0.14284      0.000297508  5.14647e-05  0.00208281   
0.14522      0.000312595  5.31834e-05  0.00215256   
0.1476       0.000328181  5.49297e-05  0.00222345   
0.14998      0.000344275  5.67038e-05  0.00229547   
0.15236      0.000360884  5.85055e-05  0.00236863   
0.15474      0.000378017  6.03348e-05  0.00244292   
0.15712      0.000395682  6.21917e-05  0.00251834   
0.1595       0.000413885  6.40762e-05  0.00259489   
0.16188      0.000432637  6.59881e-05  0.00267258   
0.16426      0.000451943  6.79276e-05  0.00275139   
0.16664      0.000471812  6.98944e-05  0.00283133   
0.16902      0.000492253  7.18887e-05  0.0029124    
0.1714       0.000513273  7.39103e-05  0.00299459   
0.17378      0.000534879  7.59593e-05  0.00307791   
0.17616      0.000557081  7.80355e-05  0.00316236   
0.17854      0.000579884  8.0139e-05   0.00324792   
0.18092      0.000603299  8.22697e-05  0.00333462   
0.1833       0.000627331  8.44275e-05  0.00342243   
0.18568      0.00065199   8.66124e-05  0.00351136   
0.18806      0.000677283  8.88244e-05  0.00360142   
0.19044      0.000703217  9.10635e-05  0.00369259   
0.19282      0.000729801  9.33295e-05  0.00378488   
0.1952       0.000757042  9.56225e-05  0.00387829   
0.19758      0.000784948  9.79423e-05  0.00397281   
0.19996      0.000813527  0.000100289  0.00406845   
0.20234      0.000842787  0.000102663  0.0041652    
0.20472      0.000872735  0.000105063  0.00426306   
0.2071       0.000903378  0.00010749   0.00436204   
0.20948      0.000934726  0.000109943  0.00446212   
0.21186      0.000966785  0.000112424  0.00456332   
0.21424      0.000999562  0.000114931  0.00466562   
0.21662      0.00103307   0.000117464  0.00476903   
0.219        0.00106731   0.000120024  0.00487354   
0.22138      0.00110229   0.00012261   0.00497916   
0.22376      0.00113802   0.000125223  0.00508588   
0.22614      0.0011745    0.000127862  0.0051937    
0.22852      0.00121176   0.000130527  0.00530263   
0.2309       0.00124978   0.000133218  0.00541265   
0.23328      0.00128858   0.000135936  0.00552377   
0.23566      0.00132818   0.00013868   0.00563598   
0.23804      0.00136856   0.00014145   0.0057493    
0.24042      0.00140975   0.000144245  0.0058637    
0.2428       0.00145175   0.000147067  0.0059792    
0.24518      0.00149457   0.000149915  0.00609579   
0.24756      0.00153821   0.000152788  0.00621347   
0.24994      0.00158268   0.000155688  0.00633224   
0.25232      0.00162799   0.000158613  0.0064521    
0.2547       0.00167415   0.000161563  0.00657304   
0.25708      0.00172117   0.00016454   0.00669507   
0.25946      0.00176905   0.000167542  0.00681818   
0.26184      0.00181779   0.000170569  0.00694238   
0.26422      0.00186741   0.000173622  0.00706765   
0.2666       0.00191792   0.0001767    0.007194     
0.26898      0.00196932   0.000179804  0.00732143   
0.27136      0.00202161   0.000182932  0.00744993   
0.27374      0.00207482   0.000186086  0.00757951   
0.27612      0.00212893   0.000189266  0.00771017   
0.2785       0.00218397   0.00019247   0.00784189   
0.28088      0.00223993   0.000195699  0.00797469   
0.28326      0.00229683   0.000198953  0.00810855   
0.28564      0.00235467   0.000202232  0.00824348   
0.28802      0.00241346   0.000205536  0.00837947   
0.2904       0.0024732    0.000208865  0.00851653   
0.29278      0.00253391   0.000212218  0.00865465   
0.29516      0.00259559   0.000215596  0.00879383   
0.29754      0.00265824   0.000218999  0.00893407   
0.29992      0.00272189   0.000222426  0.00907537   
0.3023       0.00278652   0.000225878  0.00921772   
0.30468      0.00285215   0.000229354  0.00936113   
0.30706      0.00291879   0.000232854  0.00950559   
0.30944      0.00298644   0.000236378  0.0096511    
0.31182      0.00305511   0.000239927  0.00979766   
0.3142       0.0031248    0.000243499  0.00994527   
0.31658      0.00319553   0.000247096  0.0100939    
0.31896      0.0032673    0.000250717  0.0102436    
0.32134      0.00334012   0.000254361  0.0103944    
0.32372      0.003414     0.00025803   0.0105461    
0.3261       0.00348893   0.000261722  0.010699     
0.32848      0.00356493   0.000265438  0.0108528    
0.33086      0.00364201   0.000269177  0.0110077    
0.33324      0.00372017   0.00027294   0.0111636    
0.33562      0.00379941   0.000276726  0.0113206    
0.338        0.00387975   0.000280536  0.0114786    
0.34038      0.0039612    0.000284369  0.0116376    
0.34276      0.00404375   0.000288226  0.0117976    
0.34514      0.00412742   0.000292105  0.0119587    
0.34752      0.00421221   0.000296008  0.0121208    
0.3499       0.00429812   0.000299933  0.0122839    
0.35228      0.00438518   0.000303882  0.012448     
0.35466      0.00447337   0.000307853  0.0126131    
0.35704      0.00456272   0.000311847  0.0127793    
0.35942      0.00465322   0.000315864  0.0129465    
0.3618       0.00474488   0.000319903  0.0131146    
0.36418      0.0048377    0.000323965  0.0132838    
0.36656      0.00493171   0.000328049  0.013454     
0.36894      0.00502689   0.000332156  0.0136252    
0.37132      0.00512326   0.000336285  0.0137974    
0.3737       0.00522082   0.000340436  0.0139706    
0.37608      0.00531959   0.00034461   0.0141448    
0.37846      0.00541956   0.000348805  0.01432      
0.38084      0.00552074   0.000353023  0.0144962    
0.38322      0.00562315   0.000357262  0.0146734    
0.3856       0.00572678   0.000361523  0.0148516    
0.38798      0.00583164   0.000365806  0.0150308    
0.39036      0.00593774   0.00037011   0.0152109    
0.39274      0.00604508   0.000374436  0.0153921    
0.39512      0.00615367   0.000378784  0.0155742    
0.3975       0.00626352   0.000383153  0.0157573    
0.39988      0.00637464   0.000387543  0.0159414    
0.40226      0.00648702   0.000391954  0.0161264    
0.40464      0.00660068   0.000396387  0.0163125    
0.40702      0.00671561   0.000400841  0.0164995    
0.4094       0.00683184   0.000405315  0.0166874    
0.41178      0.00694936   0.00040981   0.0168764    
0.41416      0.00706818   0.000414327  0.0170663    
0.41654      0.0071883    0.000418863  0.0172572    
0.41892      0.00730973   0.000423421  0.017449     
0.4213       0.00743249   0.000427999  0.0176418    
0.42368      0.00755656   0.000432597  0.0178355    
0.42606      0.00768196   0.000437216  0.0180302    
0.42844      0.0078087    0.000441855  0.0182259    
0.43082      0.00793678   0.000446514  0.0184225    
0.4332       0.0080662    0.000451193  0.01862      
0.43558      0.00819698   0.000455892  0.0188185    
0.43796      0.00832912   0.000460611  0.019018     
0.44034      0.00846261   0.00046535   0.0192184    
0.44272      0.00859748   0.000470108  0.0194197    
0.4451       0.00873372   0.000474886  0.0196219    
0.44748      0.00887135   0.000479684  0.0198251    
0.44986      0.00901036   0.000484501  0.0200292    
0.45224      0.00915076   0.000489337  0.0202343    
0.45462      0.00929256   0.000494193  0.0204403    
0.457        0.00943576   0.000499067  0.0206472    
0.45938      0.00958037   0.000503961  0.020855     
0.46176      0.00972639   0.000508873  0.0210637    
0.46414      0.00987383   0.000513805  0.0212734    
0.46652      0.0100227    0.000518755  0.021484     
0.4689       0.010173     0.000523724  0.0216954    
0.47128      0.0103247    0.000528711  0.0219078    
0.47366      0.0104779    0.000533716  0.0221211    
0.47604      0.0106325    0.00053874   0.0223353    
0.47842      0.0107886    0.000543783  0.0225505    
0.4808       0.0109461    0.000548843  0.0227665    
0.48318      0.0111051    0.000553922  0.0229834    
0.48556      0.0112656    0.000559018  0.0232012    
0.48794      0.0114275    0.000564132  0.0234199    
0.49032      0.0115909    0.000569264  0.0236394    
0.4927       0.0117558    0.000574414  0.0238599    
0.49508      0.0119222    0.000579581  0.0240813    
0.49746      0.01209      0.000584765  0.0243035    
0.49984      0.0122594    0.000589967  0.0245266    
0.50222      0.0124303    0.000595186  0.0247506    
0.5046       0.0126026    0.000600423  0.0249755    
0.50698      0.0127765    0.000605676  0.0252012    
0.50936      0.0129519    0.000610946  0.0254278    
0.51174      0.0131288    0.000616233  0.0256553    
0.51412      0.0133073    0.000621537  0.0258836    
0.5165       0.0134873    0.000626857  0.0261128    
0.51888      0.0136688    0.000632194  0.0263429    
0.52126      0.0138519    0.000637547  0.0265738    
0.52364      0.0140365    0.000642916  0.0268056    
0.52602      0.0142226    0.000648302  0.0270382    
0.5284       0.0144103    0.000653704  0.0272717    
0.53078      0.0145996    0.000659121  0.027506     
0.53316      0.0147905    0.000664555  0.0277411    
0.53554      0.0149829    0.000670004  0.0279771    
0.53792      0.0151768    0.000675469  0.0282139    
0.5403       0.0153724    0.000680949  0.0284516    
0.54268      0.0155695    0.000686445  0.0286901    
0.54506      0.0157683    0.000691956  0.0289294    
0.54744      0.0159686    0.000697482  0.0291696    
0.54982      0.0161705    0.000703024  0.0294105    
0.5522       0.016374     0.00070858   0.0296523    
0.55458      0.0165791    0.000714152  0.029895     
0.55696      0.0167859    0.000719738  0.0301384    
0.55934      0.0169942    0.000725338  0.0303826    
0.56172      0.0172042    0.000730953  0.0306277    
0.5641       0.0174157    0.000736583  0.0308735    
0.56648      0.017629     0.000742227  0.0311202    
0.56886      0.0178438    0.000747885  0.0313676    
0.57124      0.0180603    0.000753557  0.0316159    
0.57362      0.0182784    0.000759243  0.0318649    
0.576        0.0184981    0.000764943  0.0321148    
0.57838      0.0187195    0.000770657  0.0323654    
0.58076      0.0189425    0.000776385  0.0326168    
0.58314      0.0191672    0.000782126  0.032869     
0.58552      0.0193936    0.00078788   0.033122     
0.5879       0.0196216    0.000793647  0.0333757    
0.59028      0.0198513    0.000799428  0.0336303    
0.59266      0.0200826    0.000805222  0.0338856    
0.59504      0.0203156    0.000811029  0.0341416    
0.59742      0.0205503    0.000816848  0.0343985    
0.5998       0.0207867    0.00082268   0.0346561    
0.60218      0.0210248    0.000828525  0.0349144    
0.60456      0.0212645    0.000834383  0.0351736    
0.60694      0.021506     0.000840252  0.0354334    
0.60932      0.0217491    0.000846134  0.035694     
0.6117       0.0219939    0.000852028  0.0359554    
0.61408      0.0222405    0.000857934  0.0362175    
0.61646      0.0224887    0.000863852  0.0364804    
0.61884      0.0227386    0.000869782  0.036744     
0.62122      0.0229903    0.000875723  0.0370083    
0.6236       0.0232437    0.000881676  0.0372733    
0.62598      0.0234987    0.00088764   0.0375391    
0.62836      0.0237555    0.000893615  0.0378056    
0.63074      0.0240141    0.000899602  0.0380729    
0.63312      0.0242743    0.000905599  0.0383408    
0.6355       0.0245363    0.000911608  0.0386095    
0.63788      0.0248001    0.000917627  0.0388789    
0.64026      0.0250655    0.000923657  0.039149     
0.64264      0.0253327    0.000929698  0.0394198    
0.64502      0.0256017    0.000935749  0.0396913    
0.6474       0.0258724    0.00094181   0.0399635    
0.64978      0.0261448    0.000947881  0.0402364    
0.65216      0.026419     0.000953963  0.04051      
0.65454      0.026695     0.000960054  0.0407843    
0.65692      0.0269727    0.000966156  0.0410593    
0.6593       0.0272521    0.000972267  0.041335     
0.66168      0.0275334    0.000978387  0.0416113    
0.66406      0.0278164    0.000984517  0.0418883    
0.66644      0.0281011    0.000990656  0.042166     
0.66882      0.0283877    0.000996805  0.0424444    
0.6712       0.028676     0.00100296   0.0427235    
0.67358      0.0289661    0.00100913   0.0430032    
0.67596      0.0292579    0.0010153    0.0432835    
0.67834      0.0295516    0.00102149   0.0435646    
0.68072      0.029847     0.00102768   0.0438463    
0.6831       0.0301442    0.00103388   0.0441286    
0.68548      0.0304433    0.00104009   0.0444116    
0.68786      0.0307441    0.00104631   0.0446952    
0.69024      0.0310467    0.00105253   0.0449795    
0.69262      0.031351     0.00105877   0.0452644    
0.695        0.0316572    0.00106501   0.04555      
0.69738      0.0319652    0.00107126   0.0458362    
0.69976      0.032275     0.00107751   0.046123     
0.70214      0.0325866    0.00108378   0.0464104    
0.70452      0.0329       0.00109005   0.0466985    
0.7069       0.0332153    0.00109633   0.0469872    
0.70928      0.0335323    0.00110261   0.0472765    
0.71166      0.0338511    0.0011089    0.0475664    
0.71404      0.0341718    0.0011152    0.0478569    
0.71642      0.0344943    0.00112151   0.0481481    
0.7188       0.0348185    0.00112782   0.0484398    
0.72118      0.0351447    0.00113414   0.0487322    
0.72356      0.0354726    0.00114046   0.0490251    
0.72594      0.0358024    0.0011468    0.0493186    
0.72832      0.0361339    0.00115313   0.0496127    
0.7307       0.0364674    0.00115948   0.0499074    
0.73308      0.0368026    0.00116582   0.0502027    
0.73546      0.0371397    0.00117218   0.0504986    
0.73784      0.0374786    0.00117854   0.050795     
0.74022      0.0378193    0.0011849    0.051092     
0.7426       0.0381619    0.00119127   0.0513896    
0.74498      0.0385063    0.00119765   0.0516877    
0.74736      0.0388526    0.00120403   0.0519864    
0.74974      0.0392007    0.00121041   0.0522857    
0.75212      0.0395506    0.0012168    0.0525855    
0.7545       0.0399024    0.0012232    0.0528859    
0.75688      0.040256     0.0012296    0.0531868    
0.75926      0.0406115    0.001236     0.0534883    
0.76164      0.0409688    0.00124241   0.0537903    
0.76402      0.041328     0.00124882   0.0540928    
0.7664       0.041689     0.00125523   0.0543959    
0.76878      0.0420519    0.00126165   0.0546995    
0.77116      0.0424166    0.00126807   0.0550036    
0.77354      0.0427832    0.0012745    0.0553083    
0.77592      0.0431516    0.00128093   0.0556135    
0.7783       0.0435219    0.00128736   0.0559191    
0.78068      0.043894     0.0012938    0.0562253    
0.78306      0.044268     0.00130023   0.0565321    
0.78544      0.0446438    0.00130668   0.0568393    
0.78782      0.0450215    0.00131312   0.057147     
0.7902       0.0454011    0.00131957   0.0574552    
0.79258      0.0457825    0.00132602   0.0577639    
0.79496      0.0461658    0.00133247   0.0580731    
0.79734      0.046551     0.00133892   0.0583828    
0.79972      0.046938     0.00134538   0.058693     
0.8021       0.0473268    0.00135183   0.0590036    
0.80448      0.0477175    0.00135829   0.0593148    
0.80686      0.0481101    0.00136475   0.0596264    
0.80924      0.0485046    0.00137121   0.0599385    
0.81162      0.0489009    0.00137768   0.060251     
0.814        0.0492991    0.00138414   0.060564     
0.81638      0.0496991    0.00139061   0.0608775    
0.81876      0.050101     0.00139707   0.0611914    
0.82114      0.0505048    0.00140354   0.0615057    
0.82352      0.0509105    0.00141001   0.0618205    
0.8259       0.051318     0.00141648   0.0621358    
0.82828      0.0517273    0.00142295   0.0624515    
0.83066      0.0521386    0.00142942   0.0627676    
0.83304      0.0525517    0.00143589   0.0630842    
0.83542      0.0529666    0.00144235   0.0634012    
0.8378       0.0533835    0.00144882   0.0637186    
0.84018      0.0538022    0.00145529   0.0640365    
0.84256      0.0542227    0.00146176   0.0643547    
0.84494      0.0546451    0.00146823   0.0646734    
0.84732      0.0550694    0.0014747    0.0649925    
0.8497       0.0554956    0.00148116   0.065312     
0.85208      0.0559236    0.00148763   0.0656319    
0.85446      0.0563535    0.00149409   0.0659522    
0.85684      0.0567852    0.00150055   0.0662729    
0.85922      0.0572188    0.00150701   0.0665939    
0.8616       0.0576543    0.00151347   0.0669154    
0.86398      0.0580917    0.00151993   0.0672373    
0.86636      0.0585309    0.00152639   0.0675595    
0.86874      0.0589719    0.00153284   0.0678821    
0.87112      0.0594148    0.00153929   0.0682051    
0.8735       0.0598596    0.00154574   0.0685285    
0.87588      0.0603063    0.00155219   0.0688522    
0.87826      0.0607547    0.00155864   0.0691763    
0.88064      0.0612051    0.00156508   0.0695007    
0.88302      0.0616573    0.00157152   0.0698255    
0.8854       0.0621114    0.00157796   0.0701507    
0.88778      0.0625673    0.00158439   0.0704761    
0.89016      0.0630251    0.00159082   0.070802     
0.89254      0.0634847    0.00159725   0.0711282    
0.89492      0.0639462    0.00160367   0.0714547    
0.8973       0.0644096    0.00161009   0.0717815    
0.89968      0.0648747    0.00161651   0.0721087    
0.90206      0.0653418    0.00162292   0.0724362    
0.90444      0.0658107    0.00162933   0.072764     
0.90682      0.0662814    0.00163573   0.0730921    
0.9092       0.066754     0.00164213   0.0734206    
0.91158      0.0672284    0.00164853   0.0737493    
0.91396      0.0677047    0.00165492   0.0740784    
0.91634      0.0681828    0.00166131   0.0744077    
0.91872      0.0686627    0.00166769   0.0747374    
0.9211       0.0691445    0.00167406   0.0750673    
0.92348      0.0696282    0.00168043   0.0753976    
0.92586      0.0701136    0.0016868    0.0757281    
0.92824      0.0706009    0.00169316   0.0760589    
0.93062      0.0710901    0.00169951   0.07639      
0.933        0.071581     0.00170586   0.0767214    
0.93538      0.0720738    0.00171221   0.077053     
0.93776      0.0725684    0.00171854   0.0773849    
0.94014      0.0730649    0.00172488   0.077717     
0.94252      0.0735632    0.0017312    0.0780494    
0.9449       0.0740633    0.00173752   0.0783821    
0.94728      0.0745652    0.00174383   0.078715     
0.94966      0.0750689    0.00175014   0.0790482    
0.95204      0.0755745    0.00175644   0.0793816    
0.95442      0.0760818    0.00176273   0.0797153    
0.9568       0.076591     0.00176901   0.0800491    
0.95918      0.077102     0.00177529   0.0803833    
0.96156      0.0776148    0.00178156   0.0807176    
0.96394      0.0781294    0.00178782   0.0810522    
0.96632      0.0786458    0.00179408   0.0813869    
0.9687       0.079164     0.00180032   0.0817219    
0.97108      0.0796841    0.00180656   0.0820572    
0.97346      0.0802059    0.00181279   0.0823926    
0.97584      0.0807295    0.00181902   0.0827282    
0.97822      0.0812549    0.00182523   0.083064     
0.9806       0.0817821    0.00183144   0.0834       
0.98298      0.0823111    0.00183763   0.0837363    
