# Mass = 0.0479598 Mev*(hbarc)^2/2 
# R = 7.46549 fm 
# a = 0.662 fm 
# V0 = 59.5746 MeV 
# RSO = 6.86114 fm 
# aSO = 0.662 fm 
# VSO = 27.9312 MeV fm^2
# n = 1 
# l = 1 
# two_j = 1 
# two_t = 1 
# Energy = -36.1518 MeV
# r          u            Phi          u/r          
0.1          0.00181285   5.91314e-06  0.0181285    
0.10238      0.00190016   6.05306e-06  0.0185599    
0.10476      0.00198952   6.19295e-06  0.0189912    
0.10714      0.00208091   6.33279e-06  0.0194224    
0.10952      0.00217435   6.47259e-06  0.0198534    
0.1119       0.00226982   6.61235e-06  0.0202844    
0.11428      0.00236734   6.75206e-06  0.0207153    
0.11666      0.00246689   6.89172e-06  0.021146     
0.11904      0.00256848   7.03134e-06  0.0215766    
0.12142      0.00267211   7.1709e-06   0.0220072    
0.1238       0.00277778   7.31042e-06  0.0224376    
0.12618      0.00288548   7.44988e-06  0.0228679    
0.12856      0.00299521   7.58929e-06  0.0232982    
0.13094      0.00310698   7.72864e-06  0.0237283    
0.13332      0.00322078   7.86794e-06  0.0241583    
0.1357       0.00333662   8.00717e-06  0.0245882    
0.13808      0.00345448   8.14635e-06  0.025018     
0.14046      0.00357438   8.28547e-06  0.0254477    
0.14284      0.00369631   8.42453e-06  0.0258772    
0.14522      0.00382026   8.56353e-06  0.0263067    
0.1476       0.00394624   8.70246e-06  0.0267361    
0.14998      0.00407425   8.84132e-06  0.0271653    
0.15236      0.00420429   8.98012e-06  0.0275944    
0.15474      0.00433635   9.11886e-06  0.0280235    
0.15712      0.00447044   9.25752e-06  0.0284524    
0.1595       0.00460654   9.39612e-06  0.0288812    
0.16188      0.00474467   9.53464e-06  0.0293098    
0.16426      0.00488483   9.6731e-06   0.0297384    
0.16664      0.005027     9.81148e-06  0.0301668    
0.16902      0.00517119   9.94978e-06  0.0305951    
0.1714       0.0053174    1.0088e-05   0.0310233    
0.17378      0.00546562   1.02262e-05  0.0314514    
0.17616      0.00561586   1.03642e-05  0.0318793    
0.17854      0.00576812   1.05022e-05  0.0323071    
0.18092      0.00592238   1.06402e-05  0.0327348    
0.1833       0.00607866   1.0778e-05   0.0331624    
0.18568      0.00623695   1.09158e-05  0.0335898    
0.18806      0.00639725   1.10534e-05  0.0340171    
0.19044      0.00655956   1.1191e-05   0.0344443    
0.19282      0.00672388   1.13285e-05  0.0348713    
0.1952       0.0068902    1.1466e-05   0.0352982    
0.19758      0.00705853   1.16033e-05  0.0357249    
0.19996      0.00722886   1.17405e-05  0.0361515    
0.20234      0.00740119   1.18777e-05  0.036578     
0.20472      0.00757553   1.20148e-05  0.0370043    
0.2071       0.00775186   1.21517e-05  0.0374305    
0.20948      0.00793019   1.22886e-05  0.0378566    
0.21186      0.00811052   1.24254e-05  0.0382825    
0.21424      0.00829285   1.25621e-05  0.0387082    
0.21662      0.00847716   1.26987e-05  0.0391338    
0.219        0.00866347   1.28352e-05  0.0395592    
0.22138      0.00885178   1.29716e-05  0.0399845    
0.22376      0.00904207   1.31079e-05  0.0404097    
0.22614      0.00923435   1.32441e-05  0.0408347    
0.22852      0.00942862   1.33802e-05  0.0412595    
0.2309       0.00962487   1.35162e-05  0.0416841    
0.23328      0.0098231    1.36521e-05  0.0421086    
0.23566      0.0100233    1.37879e-05  0.042533     
0.23804      0.0102255    1.39236e-05  0.0429572    
0.24042      0.0104297    1.40592e-05  0.0433812    
0.2428       0.0106359    1.41947e-05  0.043805     
0.24518      0.010844     1.433e-05    0.0442287    
0.24756      0.0110541    1.44653e-05  0.0446522    
0.24994      0.0112662    1.46004e-05  0.0450756    
0.25232      0.0114802    1.47355e-05  0.0454987    
0.2547       0.0116963    1.48704e-05  0.0459217    
0.25708      0.0119142    1.50052e-05  0.0463445    
0.25946      0.0121342    1.51399e-05  0.0467672    
0.26184      0.0123561    1.52745e-05  0.0471896    
0.26422      0.01258      1.54089e-05  0.0476119    
0.2666       0.0128059    1.55433e-05  0.048034     
0.26898      0.0130337    1.56775e-05  0.0484559    
0.27136      0.0132634    1.58116e-05  0.0488776    
0.27374      0.0134951    1.59456e-05  0.0492992    
0.27612      0.0137288    1.60795e-05  0.0497205    
0.2785       0.0139645    1.62132e-05  0.0501417    
0.28088      0.014202     1.63468e-05  0.0505626    
0.28326      0.0144416    1.64803e-05  0.0509834    
0.28564      0.014683     1.66137e-05  0.051404     
0.28802      0.0149265    1.67469e-05  0.0518244    
0.2904       0.0151718    1.68801e-05  0.0522445    
0.29278      0.0154191    1.7013e-05   0.0526645    
0.29516      0.0156684    1.71459e-05  0.0530843    
0.29754      0.0159195    1.72786e-05  0.0535039    
0.29992      0.0161727    1.74112e-05  0.0539233    
0.3023       0.0164277    1.75437e-05  0.0543424    
0.30468      0.0166847    1.7676e-05   0.0547614    
0.30706      0.0169436    1.78082e-05  0.0551801    
0.30944      0.0172045    1.79402e-05  0.0555987    
0.31182      0.0174672    1.80722e-05  0.056017     
0.3142       0.0177319    1.82039e-05  0.0564351    
0.31658      0.0179985    1.83356e-05  0.056853     
0.31896      0.0182671    1.84671e-05  0.0572707    
0.32134      0.0185375    1.85984e-05  0.0576882    
0.32372      0.0188099    1.87296e-05  0.0581054    
0.3261       0.0190842    1.88607e-05  0.0585224    
0.32848      0.0193604    1.89916e-05  0.0589392    
0.33086      0.0196385    1.91224e-05  0.0593558    
0.33324      0.0199185    1.9253e-05   0.0597722    
0.33562      0.0202004    1.93835e-05  0.0601883    
0.338        0.0204842    1.95139e-05  0.0606042    
0.34038      0.0207699    1.96441e-05  0.0610198    
0.34276      0.0210575    1.97741e-05  0.0614353    
0.34514      0.0213471    1.9904e-05   0.0618504    
0.34752      0.0216385    2.00337e-05  0.0622654    
0.3499       0.0219318    2.01633e-05  0.0626801    
0.35228      0.022227     2.02927e-05  0.0630946    
0.35466      0.022524     2.0422e-05   0.0635088    
0.35704      0.022823     2.05511e-05  0.0639228    
0.35942      0.0231239    2.06801e-05  0.0643366    
0.3618       0.0234266    2.08089e-05  0.0647501    
0.36418      0.0237312    2.09375e-05  0.0651634    
0.36656      0.0240377    2.1066e-05   0.0655764    
0.36894      0.024346     2.11943e-05  0.0659891    
0.37132      0.0246563    2.13225e-05  0.0664017    
0.3737       0.0249684    2.14505e-05  0.0668139    
0.37608      0.0252823    2.15783e-05  0.0672259    
0.37846      0.0255982    2.1706e-05   0.0676377    
0.38084      0.0259158    2.18335e-05  0.0680492    
0.38322      0.0262354    2.19608e-05  0.0684604    
0.3856       0.0265568    2.2088e-05   0.0688714    
0.38798      0.0268801    2.2215e-05   0.0692821    
0.39036      0.0272052    2.23418e-05  0.0696925    
0.39274      0.0275321    2.24684e-05  0.0701027    
0.39512      0.0278609    2.25949e-05  0.0705126    
0.3975       0.0281916    2.27212e-05  0.0709223    
0.39988      0.0285241    2.28474e-05  0.0713316    
0.40226      0.0288584    2.29733e-05  0.0717407    
0.40464      0.0291946    2.30991e-05  0.0721496    
0.40702      0.0295326    2.32247e-05  0.0725581    
0.4094       0.0298725    2.33501e-05  0.0729664    
0.41178      0.0302141    2.34754e-05  0.0733744    
0.41416      0.0305576    2.36005e-05  0.0737821    
0.41654      0.0309029    2.37253e-05  0.0741896    
0.41892      0.0312501    2.385e-05    0.0745967    
0.4213       0.031599     2.39746e-05  0.0750036    
0.42368      0.0319498    2.40989e-05  0.0754102    
0.42606      0.0323024    2.42231e-05  0.0758165    
0.42844      0.0326568    2.4347e-05   0.0762225    
0.43082      0.033013     2.44708e-05  0.0766283    
0.4332       0.033371     2.45944e-05  0.0770337    
0.43558      0.0337308    2.47178e-05  0.0774388    
0.43796      0.0340924    2.4841e-05   0.0778437    
0.44034      0.0344558    2.49641e-05  0.0782482    
0.44272      0.034821     2.50869e-05  0.0786525    
0.4451       0.035188     2.52095e-05  0.0790564    
0.44748      0.0355568    2.5332e-05   0.0794601    
0.44986      0.0359274    2.54542e-05  0.0798635    
0.45224      0.0362997    2.55763e-05  0.0802665    
0.45462      0.0366739    2.56982e-05  0.0806692    
0.457        0.0370498    2.58198e-05  0.0810717    
0.45938      0.0374274    2.59413e-05  0.0814738    
0.46176      0.0378069    2.60626e-05  0.0818756    
0.46414      0.0381881    2.61836e-05  0.0822771    
0.46652      0.0385711    2.63045e-05  0.0826783    
0.4689       0.0389558    2.64252e-05  0.0830792    
0.47128      0.0393423    2.65456e-05  0.0834798    
0.47366      0.0397306    2.66659e-05  0.08388      
0.47604      0.0401206    2.67859e-05  0.08428      
0.47842      0.0405124    2.69058e-05  0.0846796    
0.4808       0.0409059    2.70254e-05  0.0850789    
0.48318      0.0413012    2.71449e-05  0.0854778    
0.48556      0.0416982    2.72641e-05  0.0858765    
0.48794      0.0420969    2.73831e-05  0.0862748    
0.49032      0.0424974    2.75019e-05  0.0866728    
0.4927       0.0428996    2.76205e-05  0.0870704    
0.49508      0.0433035    2.77389e-05  0.0874677    
0.49746      0.0437092    2.78571e-05  0.0878647    
0.49984      0.0441166    2.7975e-05   0.0882614    
0.50222      0.0445257    2.80928e-05  0.0886577    
0.5046       0.0449365    2.82103e-05  0.0890537    
0.50698      0.045349     2.83276e-05  0.0894494    
0.50936      0.0457633    2.84447e-05  0.0898447    
0.51174      0.0461792    2.85616e-05  0.0902396    
0.51412      0.0465969    2.86782e-05  0.0906343    
0.5165       0.0470162    2.87946e-05  0.0910285    
0.51888      0.0474373    2.89109e-05  0.0914225    
0.52126      0.04786      2.90268e-05  0.0918161    
0.52364      0.0482845    2.91426e-05  0.0922093    
0.52602      0.0487106    2.92582e-05  0.0926022    
0.5284       0.0491384    2.93735e-05  0.0929948    
0.53078      0.0495679    2.94886e-05  0.0933869    
0.53316      0.0499991    2.96034e-05  0.0937788    
0.53554      0.0504319    2.97181e-05  0.0941703    
0.53792      0.0508665    2.98325e-05  0.0945614    
0.5403       0.0513026    2.99467e-05  0.0949521    
0.54268      0.0517405    3.00606e-05  0.0953425    
0.54506      0.05218      3.01743e-05  0.0957326    
0.54744      0.0526212    3.02878e-05  0.0961223    
0.54982      0.053064     3.04011e-05  0.0965116    
0.5522       0.0535085    3.05141e-05  0.0969005    
0.55458      0.0539546    3.06269e-05  0.0972891    
0.55696      0.0544024    3.07394e-05  0.0976773    
0.55934      0.0548518    3.08517e-05  0.0980651    
0.56172      0.0553028    3.09638e-05  0.0984526    
0.5641       0.0557555    3.10756e-05  0.0988397    
0.56648      0.0562098    3.11872e-05  0.0992264    
0.56886      0.0566657    3.12986e-05  0.0996128    
0.57124      0.0571233    3.14097e-05  0.0999987    
0.57362      0.0575825    3.15206e-05  0.100384     
0.576        0.0580433    3.16312e-05  0.10077      
0.57838      0.0585057    3.17416e-05  0.101154     
0.58076      0.0589697    3.18518e-05  0.101539     
0.58314      0.0594353    3.19617e-05  0.101923     
0.58552      0.0599025    3.20713e-05  0.102307     
0.5879       0.0603713    3.21807e-05  0.10269      
0.59028      0.0608418    3.22899e-05  0.103073     
0.59266      0.0613138    3.23988e-05  0.103455     
0.59504      0.0617874    3.25075e-05  0.103837     
0.59742      0.0622625    3.26159e-05  0.104219     
0.5998       0.0627393    3.2724e-05   0.1046       
0.60218      0.0632176    3.28319e-05  0.104981     
0.60456      0.0636975    3.29396e-05  0.105362     
0.60694      0.064179     3.3047e-05   0.105742     
0.60932      0.0646621    3.31541e-05  0.106122     
0.6117       0.0651467    3.3261e-05   0.106501     
0.61408      0.0656328    3.33677e-05  0.10688      
0.61646      0.0661206    3.3474e-05   0.107258     
0.61884      0.0666098    3.35802e-05  0.107637     
0.62122      0.0671006    3.3686e-05   0.108014     
0.6236       0.067593     3.37916e-05  0.108392     
0.62598      0.0680869    3.3897e-05   0.108768     
0.62836      0.0685823    3.4002e-05   0.109145     
0.63074      0.0690793    3.41069e-05  0.109521     
0.63312      0.0695778    3.42114e-05  0.109897     
0.6355       0.0700778    3.43157e-05  0.110272     
0.63788      0.0705793    3.44197e-05  0.110647     
0.64026      0.0710824    3.45235e-05  0.111021     
0.64264      0.0715869    3.4627e-05   0.111395     
0.64502      0.072093     3.47302e-05  0.111769     
0.6474       0.0726006    3.48332e-05  0.112142     
0.64978      0.0731097    3.49359e-05  0.112515     
0.65216      0.0736202    3.50383e-05  0.112887     
0.65454      0.0741323    3.51404e-05  0.113259     
0.65692      0.0746459    3.52423e-05  0.11363      
0.6593       0.0751609    3.53439e-05  0.114001     
0.66168      0.0756774    3.54453e-05  0.114372     
0.66406      0.0761954    3.55463e-05  0.114742     
0.66644      0.0767149    3.56471e-05  0.115111     
0.66882      0.0772358    3.57476e-05  0.115481     
0.6712       0.0777582    3.58478e-05  0.11585      
0.67358      0.0782821    3.59478e-05  0.116218     
0.67596      0.0788074    3.60475e-05  0.116586     
0.67834      0.0793342    3.61469e-05  0.116953     
0.68072      0.0798624    3.6246e-05   0.117321     
0.6831       0.0803921    3.63449e-05  0.117687     
0.68548      0.0809232    3.64434e-05  0.118053     
0.68786      0.0814557    3.65417e-05  0.118419     
0.69024      0.0819897    3.66397e-05  0.118784     
0.69262      0.0825251    3.67374e-05  0.119149     
0.695        0.0830619    3.68348e-05  0.119514     
0.69738      0.0836002    3.6932e-05   0.119878     
0.69976      0.0841399    3.70288e-05  0.120241     
0.70214      0.0846809    3.71254e-05  0.120604     
0.70452      0.0852234    3.72217e-05  0.120967     
0.7069       0.0857673    3.73177e-05  0.121329     
0.70928      0.0863126    3.74134e-05  0.12169      
0.71166      0.0868593    3.75088e-05  0.122052     
0.71404      0.0874073    3.7604e-05   0.122412     
0.71642      0.0879568    3.76988e-05  0.122773     
0.7188       0.0885076    3.77934e-05  0.123132     
0.72118      0.0890598    3.78876e-05  0.123492     
0.72356      0.0896134    3.79816e-05  0.123851     
0.72594      0.0901684    3.80753e-05  0.124209     
0.72832      0.0907247    3.81686e-05  0.124567     
0.7307       0.0912824    3.82617e-05  0.124925     
0.73308      0.0918414    3.83545e-05  0.125282     
0.73546      0.0924018    3.8447e-05   0.125638     
0.73784      0.0929636    3.85392e-05  0.125994     
0.74022      0.0935266    3.86311e-05  0.12635      
0.7426       0.0940911    3.87227e-05  0.126705     
0.74498      0.0946568    3.8814e-05   0.12706      
0.74736      0.0952239    3.89049e-05  0.127414     
0.74974      0.0957923    3.89956e-05  0.127767     
0.75212      0.096362     3.9086e-05   0.128121     
0.7545       0.0969331    3.91761e-05  0.128473     
0.75688      0.0975054    3.92659e-05  0.128825     
0.75926      0.0980791    3.93554e-05  0.129177     
0.76164      0.0986541    3.94445e-05  0.129528     
0.76402      0.0992304    3.95334e-05  0.129879     
0.7664       0.0998079    3.9622e-05   0.13023      
0.76878      0.100387     3.97102e-05  0.130579     
0.77116      0.100967     3.97982e-05  0.130929     
0.77354      0.101548     3.98858e-05  0.131277     
0.77592      0.102131     3.99731e-05  0.131626     
0.7783       0.102715     4.00602e-05  0.131974     
0.78068      0.1033       4.01469e-05  0.132321     
0.78306      0.103887     4.02333e-05  0.132668     
0.78544      0.104475     4.03194e-05  0.133014     
0.78782      0.105064     4.04051e-05  0.13336      
0.7902       0.105654     4.04906e-05  0.133705     
0.79258      0.106245     4.05757e-05  0.13405      
0.79496      0.106838     4.06606e-05  0.134394     
0.79734      0.107432     4.07451e-05  0.134738     
0.79972      0.108027     4.08293e-05  0.135081     
0.8021       0.108624     4.09131e-05  0.135424     
0.80448      0.109221     4.09967e-05  0.135766     
0.80686      0.10982      4.108e-05    0.136108     
0.80924      0.11042      4.11629e-05  0.136449     
0.81162      0.111022     4.12455e-05  0.13679      
0.814        0.111624     4.13278e-05  0.13713      
0.81638      0.112228     4.14097e-05  0.13747      
0.81876      0.112833     4.14914e-05  0.137809     
0.82114      0.113439     4.15727e-05  0.138148     
0.82352      0.114046     4.16537e-05  0.138486     
0.8259       0.114655     4.17344e-05  0.138824     
0.82828      0.115264     4.18147e-05  0.139161     
0.83066      0.115875     4.18947e-05  0.139497     
0.83304      0.116487     4.19744e-05  0.139834     
0.83542      0.1171       4.20538e-05  0.140169     
0.8378       0.117714     4.21329e-05  0.140504     
0.84018      0.11833      4.22116e-05  0.140839     
0.84256      0.118946     4.229e-05    0.141173     
0.84494      0.119564     4.2368e-05   0.141506     
0.84732      0.120183     4.24458e-05  0.141839     
0.8497       0.120803     4.25232e-05  0.142171     
0.85208      0.121424     4.26002e-05  0.142503     
0.85446      0.122046     4.2677e-05   0.142834     
0.85684      0.12267      4.27534e-05  0.143165     
0.85922      0.123294     4.28295e-05  0.143495     
0.8616       0.12392      4.29052e-05  0.143825     
0.86398      0.124546     4.29806e-05  0.144154     
0.86636      0.125174     4.30557e-05  0.144483     
0.86874      0.125803     4.31304e-05  0.144811     
0.87112      0.126433     4.32048e-05  0.145138     
0.8735       0.127064     4.32789e-05  0.145465     
0.87588      0.127696     4.33526e-05  0.145792     
0.87826      0.128329     4.3426e-05   0.146118     
0.88064      0.128963     4.3499e-05   0.146443     
0.88302      0.129599     4.35718e-05  0.146768     
0.8854       0.130235     4.36441e-05  0.147092     
0.88778      0.130873     4.37162e-05  0.147416     
0.89016      0.131511     4.37878e-05  0.147739     
0.89254      0.132151     4.38592e-05  0.148061     
0.89492      0.132791     4.39302e-05  0.148383     
0.8973       0.133433     4.40009e-05  0.148705     
0.89968      0.134075     4.40712e-05  0.149026     
0.90206      0.134719     4.41412e-05  0.149346     
0.90444      0.135364     4.42108e-05  0.149666     
0.90682      0.136009     4.42801e-05  0.149985     
0.9092       0.136656     4.4349e-05   0.150304     
0.91158      0.137304     4.44176e-05  0.150622     
0.91396      0.137953     4.44859e-05  0.150939     
0.91634      0.138602     4.45538e-05  0.151256     
0.91872      0.139253     4.46213e-05  0.151573     
0.9211       0.139905     4.46885e-05  0.151889     
0.92348      0.140557     4.47554e-05  0.152204     
0.92586      0.141211     4.48219e-05  0.152518     
0.92824      0.141865     4.48881e-05  0.152833     
0.93062      0.142521     4.49539e-05  0.153146     
0.933        0.143177     4.50193e-05  0.153459     
0.93538      0.143835     4.50844e-05  0.153772     
0.93776      0.144493     4.51492e-05  0.154083     
0.94014      0.145153     4.52136e-05  0.154395     
0.94252      0.145813     4.52776e-05  0.154705     
0.9449       0.146474     4.53413e-05  0.155015     
0.94728      0.147136     4.54047e-05  0.155325     
0.94966      0.147799     4.54676e-05  0.155634     
0.95204      0.148463     4.55303e-05  0.155942     
0.95442      0.149128     4.55925e-05  0.15625      
0.9568       0.149794     4.56544e-05  0.156557     
0.95918      0.150461     4.5716e-05   0.156864     
0.96156      0.151128     4.57772e-05  0.15717      
0.96394      0.151797     4.5838e-05   0.157475     
0.96632      0.152466     4.58985e-05  0.15778      
0.9687       0.153136     4.59586e-05  0.158084     
0.97108      0.153807     4.60184e-05  0.158388     
0.97346      0.154479     4.60778e-05  0.158691     
0.97584      0.155152     4.61368e-05  0.158994     
0.97822      0.155826     4.61955e-05  0.159295     
0.9806       0.156501     4.62538e-05  0.159597     
0.98298      0.157176     4.63118e-05  0.159897     
