# Mass = 0.0479598 Mev*(hbarc)^2/2 
# R = 7.46549 fm 
# a = 0.662 fm 
# V0 = 59.5746 MeV 
# RSO = 6.86114 fm 
# aSO = 0.662 fm 
# VSO = 27.9312 MeV fm^2
# n = 1 
# l = 4 
# two_j = 7 
# two_t = 1 
# Energy = -11.2874 MeV
# r          u            Phi          u/r          
0.1          3.7855e-08   1.78256e-08  3.7855e-07   
0.10238      4.25791e-08  1.9582e-08   4.15893e-07  
0.10476      4.7763e-08   2.14652e-08  4.55928e-07  
0.10714      5.34394e-08  2.34811e-08  4.98781e-07  
0.10952      5.96426e-08  2.56356e-08  5.44582e-07  
0.1119       6.64085e-08  2.79351e-08  5.93463e-07  
0.11428      7.37745e-08  3.03859e-08  6.45559e-07  
0.11666      8.17796e-08  3.29943e-08  7.01008e-07  
0.11904      9.04645e-08  3.57671e-08  7.5995e-07   
0.12142      9.98716e-08  3.8711e-08   8.2253e-07   
0.1238       1.10045e-07  4.18327e-08  8.88893e-07  
0.12618      1.21031e-07  4.51394e-08  9.59189e-07  
0.12856      1.32876e-07  4.86381e-08  1.03357e-06  
0.13094      1.4563e-07   5.23361e-08  1.11219e-06  
0.13332      1.59345e-07  5.62409e-08  1.19521e-06  
0.1357       1.74074e-07  6.03599e-08  1.28278e-06  
0.13808      1.89871e-07  6.47008e-08  1.37508e-06  
0.14046      2.06795e-07  6.92714e-08  1.47227e-06  
0.14284      2.24903e-07  7.40797e-08  1.57451e-06  
0.14522      2.44257e-07  7.91336e-08  1.68198e-06  
0.1476       2.6492e-07   8.44415e-08  1.79485e-06  
0.14998      2.86958e-07  9.00115e-08  1.91331e-06  
0.15236      3.10437e-07  9.58522e-08  2.03753e-06  
0.15474      3.35428e-07  1.01972e-07  2.16769e-06  
0.15712      3.62001e-07  1.0838e-07   2.30398e-06  
0.1595       3.90231e-07  1.15085e-07  2.44659e-06  
0.16188      4.20194e-07  1.22095e-07  2.59571e-06  
0.16426      4.51968e-07  1.29421e-07  2.75154e-06  
0.16664      4.85633e-07  1.3707e-07   2.91427e-06  
0.16902      5.21274e-07  1.45053e-07  3.0841e-06   
0.1714       5.58976e-07  1.53379e-07  3.26124e-06  
0.17378      5.98826e-07  1.62057e-07  3.44588e-06  
0.17616      6.40914e-07  1.71098e-07  3.63825e-06  
0.17854      6.85335e-07  1.80511e-07  3.83855e-06  
0.18092      7.32182e-07  1.90307e-07  4.04699e-06  
0.1833       7.81554e-07  2.00494e-07  4.26379e-06  
0.18568      8.33551e-07  2.11084e-07  4.48918e-06  
0.18806      8.88276e-07  2.22088e-07  4.72336e-06  
0.19044      9.45835e-07  2.33514e-07  4.96658e-06  
0.19282      1.00634e-06  2.45375e-07  5.21905e-06  
0.1952       1.06989e-06  2.57681e-07  5.481e-06    
0.19758      1.13661e-06  2.70443e-07  5.75268e-06  
0.19996      1.20662e-06  2.83671e-07  6.0343e-06   
0.20234      1.28003e-06  2.97378e-07  6.32613e-06  
0.20472      1.35696e-06  3.11573e-07  6.62839e-06  
0.2071       1.43755e-06  3.2627e-07   6.94132e-06  
0.20948      1.52191e-06  3.41478e-07  7.26519e-06  
0.21186      1.61018e-06  3.57211e-07  7.60023e-06  
0.21424      1.7025e-06   3.73479e-07  7.9467e-06   
0.21662      1.799e-06    3.90294e-07  8.30485e-06  
0.219        1.89981e-06  4.07669e-07  8.67494e-06  
0.22138      2.00509e-06  4.25616e-07  9.05724e-06  
0.22376      2.11498e-06  4.44147e-07  9.452e-06    
0.22614      2.22962e-06  4.63274e-07  9.85949e-06  
0.22852      2.34918e-06  4.83009e-07  1.028e-05    
0.2309       2.4738e-06   5.03367e-07  1.07137e-05  
0.23328      2.60365e-06  5.24358e-07  1.1161e-05   
0.23566      2.73888e-06  5.45996e-07  1.16222e-05  
0.23804      2.87966e-06  5.68295e-07  1.20974e-05  
0.24042      3.02617e-06  5.91267e-07  1.2587e-05   
0.2428       3.17856e-06  6.14925e-07  1.30913e-05  
0.24518      3.33703e-06  6.39283e-07  1.36105e-05  
0.24756      3.50173e-06  6.64354e-07  1.4145e-05   
0.24994      3.67287e-06  6.90152e-07  1.4695e-05   
0.25232      3.85062e-06  7.16691e-07  1.52608e-05  
0.2547       4.03517e-06  7.43984e-07  1.58428e-05  
0.25708      4.22671e-06  7.72045e-07  1.64412e-05  
0.25946      4.42544e-06  8.00889e-07  1.70564e-05  
0.26184      4.63157e-06  8.3053e-07   1.76885e-05  
0.26422      4.84528e-06  8.60981e-07  1.83381e-05  
0.2666       5.0668e-06   8.92258e-07  1.90052e-05  
0.26898      5.29632e-06  9.24375e-07  1.96904e-05  
0.27136      5.53407e-06  9.57346e-07  2.03938e-05  
0.27374      5.78026e-06  9.91187e-07  2.11159e-05  
0.27612      6.03512e-06  1.02591e-06  2.18569e-05  
0.2785       6.29886e-06  1.06154e-06  2.26171e-05  
0.28088      6.57172e-06  1.09807e-06  2.33969e-05  
0.28326      6.85394e-06  1.13554e-06  2.41966e-05  
0.28564      7.14574e-06  1.17396e-06  2.50166e-05  
0.28802      7.44736e-06  1.21333e-06  2.58571e-05  
0.2904       7.75907e-06  1.25368e-06  2.67185e-05  
0.29278      8.08109e-06  1.29502e-06  2.76012e-05  
0.29516      8.41369e-06  1.33737e-06  2.85055e-05  
0.29754      8.75711e-06  1.38074e-06  2.94317e-05  
0.29992      9.11163e-06  1.42515e-06  3.03802e-05  
0.3023       9.47751e-06  1.47062e-06  3.13513e-05  
0.30468      9.85501e-06  1.51716e-06  3.23455e-05  
0.30706      1.02444e-05  1.56478e-06  3.33629e-05  
0.30944      1.0646e-05   1.61351e-06  3.4404e-05   
0.31182      1.106e-05    1.66337e-06  3.54692e-05  
0.3142       1.14868e-05  1.71436e-06  3.65588e-05  
0.31658      1.19266e-05  1.7665e-06   3.76732e-05  
0.31896      1.23797e-05  1.81982e-06  3.88128e-05  
0.32134      1.28465e-05  1.87432e-06  3.99778e-05  
0.32372      1.33272e-05  1.93003e-06  4.11688e-05  
0.3261       1.38221e-05  1.98697e-06  4.2386e-05   
0.32848      1.43315e-05  2.04514e-06  4.36298e-05  
0.33086      1.48558e-05  2.10457e-06  4.49007e-05  
0.33324      1.53953e-05  2.16528e-06  4.61989e-05  
0.33562      1.59503e-05  2.22728e-06  4.7525e-05   
0.338        1.65212e-05  2.29059e-06  4.88792e-05  
0.34038      1.71082e-05  2.35522e-06  5.0262e-05   
0.34276      1.77117e-05  2.42121e-06  5.16737e-05  
0.34514      1.8332e-05   2.48856e-06  5.31147e-05  
0.34752      1.89696e-05  2.55729e-06  5.45855e-05  
0.3499       1.96247e-05  2.62742e-06  5.60865e-05  
0.35228      2.02977e-05  2.69897e-06  5.7618e-05   
0.35466      2.09889e-05  2.77196e-06  5.91804e-05  
0.35704      2.16988e-05  2.84641e-06  6.07741e-05  
0.35942      2.24277e-05  2.92233e-06  6.23996e-05  
0.3618       2.31759e-05  2.99974e-06  6.40573e-05  
0.36418      2.3944e-05   3.07867e-06  6.57476e-05  
0.36656      2.47321e-05  3.15913e-06  6.74708e-05  
0.36894      2.55408e-05  3.24114e-06  6.92275e-05  
0.37132      2.63704e-05  3.32472e-06  7.1018e-05   
0.3737       2.72213e-05  3.40988e-06  7.28427e-05  
0.37608      2.8094e-05   3.49666e-06  7.47021e-05  
0.37846      2.89888e-05  3.58506e-06  7.65966e-05  
0.38084      2.99061e-05  3.67512e-06  7.85267e-05  
0.38322      3.08464e-05  3.76684e-06  8.04927e-05  
0.3856       3.18101e-05  3.86024e-06  8.24951e-05  
0.38798      3.27976e-05  3.95535e-06  8.45343e-05  
0.39036      3.38094e-05  4.05219e-06  8.66108e-05  
0.39274      3.48458e-05  4.15078e-06  8.8725e-05   
0.39512      3.59074e-05  4.25113e-06  9.08773e-05  
0.3975       3.69946e-05  4.35327e-06  9.30682e-05  
0.39988      3.81078e-05  4.45722e-06  9.52982e-05  
0.40226      3.92476e-05  4.56299e-06  9.75677e-05  
0.40464      4.04143e-05  4.67061e-06  9.98771e-05  
0.40702      4.16084e-05  4.7801e-06   0.000102227  
0.4094       4.28304e-05  4.89149e-06  0.000104617  
0.41178      4.40808e-05  5.00478e-06  0.000107049  
0.41416      4.53601e-05  5.12e-06     0.000109523  
0.41654      4.66688e-05  5.23717e-06  0.000112039  
0.41892      4.80073e-05  5.35632e-06  0.000114598  
0.4213       4.93761e-05  5.47746e-06  0.000117199  
0.42368      5.07759e-05  5.60062e-06  0.000119845  
0.42606      5.2207e-05   5.72581e-06  0.000122534  
0.42844      5.367e-05    5.85306e-06  0.000125268  
0.43082      5.51655e-05  5.98239e-06  0.000128048  
0.4332       5.66939e-05  6.11382e-06  0.000130872  
0.43558      5.82557e-05  6.24737e-06  0.000133743  
0.43796      5.98516e-05  6.38307e-06  0.00013666   
0.44034      6.14821e-05  6.52093e-06  0.000139624  
0.44272      6.31477e-05  6.66098e-06  0.000142636  
0.4451       6.48489e-05  6.80325e-06  0.000145695  
0.44748      6.65864e-05  6.94774e-06  0.000148803  
0.44986      6.83607e-05  7.09449e-06  0.00015196   
0.45224      7.01723e-05  7.24351e-06  0.000155166  
0.45462      7.20219e-05  7.39483e-06  0.000158422  
0.457        7.391e-05    7.54847e-06  0.000161729  
0.45938      7.58373e-05  7.70446e-06  0.000165086  
0.46176      7.78043e-05  7.86281e-06  0.000168495  
0.46414      7.98116e-05  8.02355e-06  0.000171956  
0.46652      8.18598e-05  8.1867e-06   0.000175469  
0.4689       8.39495e-05  8.35228e-06  0.000179035  
0.47128      8.60814e-05  8.52032e-06  0.000182655  
0.47366      8.82561e-05  8.69084e-06  0.000186328  
0.47604      9.04742e-05  8.86387e-06  0.000190056  
0.47842      9.27364e-05  9.03941e-06  0.000193839  
0.4808       9.50432e-05  9.21751e-06  0.000197677  
0.48318      9.73954e-05  9.39818e-06  0.000201572  
0.48556      9.97935e-05  9.58144e-06  0.000205522  
0.48794      0.000102238  9.76732e-06  0.00020953   
0.49032      0.00010473   9.95584e-06  0.000213596  
0.4927       0.00010727   1.0147e-05   0.00021772   
0.49508      0.000109859  1.03409e-05  0.000221902  
0.49746      0.000112497  1.05375e-05  0.000226143  
0.49984      0.000115185  1.07368e-05  0.000230444  
0.50222      0.000117924  1.09389e-05  0.000234806  
0.5046       0.000120714  1.11438e-05  0.000239228  
0.50698      0.000123557  1.13514e-05  0.000243711  
0.50936      0.000126452  1.15619e-05  0.000248256  
0.51174      0.000129401  1.17753e-05  0.000252864  
0.51412      0.000132404  1.19915e-05  0.000257535  
0.5165       0.000135462  1.22107e-05  0.000262269  
0.51888      0.000138576  1.24328e-05  0.000267067  
0.52126      0.000141746  1.26578e-05  0.000271929  
0.52364      0.000144973  1.28858e-05  0.000276857  
0.52602      0.000148259  1.31168e-05  0.00028185   
0.5284       0.000151603  1.33508e-05  0.00028691   
0.53078      0.000155007  1.35879e-05  0.000292036  
0.53316      0.000158471  1.3828e-05   0.00029723   
0.53554      0.000161996  1.40713e-05  0.000302491  
0.53792      0.000165583  1.43176e-05  0.000307821  
0.5403       0.000169233  1.45671e-05  0.00031322   
0.54268      0.000172946  1.48198e-05  0.000318689  
0.54506      0.000176724  1.50757e-05  0.000324228  
0.54744      0.000180566  1.53348e-05  0.000329837  
0.54982      0.000184475  1.55972e-05  0.000335518  
0.5522       0.00018845   1.58628e-05  0.000341271  
0.55458      0.000192492  1.61317e-05  0.000347096  
0.55696      0.000196603  1.6404e-05   0.000352994  
0.55934      0.000200784  1.66796e-05  0.000358965  
0.56172      0.000205034  1.69585e-05  0.000365011  
0.5641       0.000209355  1.72409e-05  0.000371131  
0.56648      0.000213748  1.75267e-05  0.000377327  
0.56886      0.000218214  1.78159e-05  0.000383598  
0.57124      0.000222753  1.81086e-05  0.000389947  
0.57362      0.000227367  1.84049e-05  0.000396372  
0.576        0.000232056  1.87046e-05  0.000402874  
0.57838      0.000236821  1.90079e-05  0.000409455  
0.58076      0.000241663  1.93147e-05  0.000416115  
0.58314      0.000246583  1.96252e-05  0.000422854  
0.58552      0.000251582  1.99393e-05  0.000429673  
0.5879       0.000256661  2.0257e-05   0.000436573  
0.59028      0.000261821  2.05785e-05  0.000443554  
0.59266      0.000267063  2.09036e-05  0.000450617  
0.59504      0.000272387  2.12324e-05  0.000457762  
0.59742      0.000277794  2.15651e-05  0.00046499   
0.5998       0.000283287  2.19014e-05  0.000472302  
0.60218      0.000288864  2.22417e-05  0.000479697  
0.60456      0.000294528  2.25857e-05  0.000487178  
0.60694      0.00030028   2.29336e-05  0.000494744  
0.60932      0.00030612   2.32854e-05  0.000502396  
0.6117       0.000312049  2.36411e-05  0.000510134  
0.61408      0.000318069  2.40007e-05  0.00051796   
0.61646      0.00032418   2.43643e-05  0.000525874  
0.61884      0.000330384  2.47319e-05  0.000533876  
0.62122      0.000336681  2.51035e-05  0.000541967  
0.6236       0.000343072  2.54792e-05  0.000550148  
0.62598      0.000349559  2.58589e-05  0.000558419  
0.62836      0.000356142  2.62427e-05  0.00056678   
0.63074      0.000362823  2.66306e-05  0.000575234  
0.63312      0.000369602  2.70227e-05  0.000583779  
0.6355       0.000376481  2.7419e-05   0.000592417  
0.63788      0.000383461  2.78195e-05  0.000601149  
0.64026      0.000390542  2.82242e-05  0.000609974  
0.64264      0.000397726  2.86331e-05  0.000618895  
0.64502      0.000405015  2.90463e-05  0.00062791   
0.6474       0.000412408  2.94639e-05  0.000637021  
0.64978      0.000419907  2.98857e-05  0.000646229  
0.65216      0.000427513  3.0312e-05   0.000655534  
0.65454      0.000435227  3.07426e-05  0.000664936  
0.65692      0.000443051  3.11776e-05  0.000674437  
0.6593       0.000450986  3.16171e-05  0.000684037  
0.66168      0.000459032  3.2061e-05   0.000693737  
0.66406      0.000467191  3.25095e-05  0.000703537  
0.66644      0.000475463  3.29624e-05  0.000713438  
0.66882      0.000483851  3.342e-05    0.00072344   
0.6712       0.000492355  3.3882e-05   0.000733545  
0.67358      0.000500976  3.43487e-05  0.000743752  
0.67596      0.000509716  3.482e-05    0.000754063  
0.67834      0.000518576  3.5296e-05   0.000764478  
0.68072      0.000527556  3.57766e-05  0.000774997  
0.6831       0.000536659  3.6262e-05   0.000785622  
0.68548      0.000545884  3.67521e-05  0.000796353  
0.68786      0.000555234  3.72469e-05  0.000807191  
0.69024      0.00056471   3.77466e-05  0.000818136  
0.69262      0.000574313  3.82511e-05  0.000829189  
0.695        0.000584044  3.87604e-05  0.000840351  
0.69738      0.000593904  3.92745e-05  0.000851621  
0.69976      0.000603894  3.97936e-05  0.000863002  
0.70214      0.000614017  4.03176e-05  0.000874494  
0.70452      0.000624272  4.08465e-05  0.000886096  
0.7069       0.000634662  4.13805e-05  0.00089781   
0.70928      0.000645188  4.19194e-05  0.000909637  
0.71166      0.00065585   4.24634e-05  0.000921577  
0.71404      0.00066665   4.30124e-05  0.000933631  
0.71642      0.00067759   4.35665e-05  0.0009458    
0.7188       0.00068867   4.41257e-05  0.000958083  
0.72118      0.000699892  4.46901e-05  0.000970482  
0.72356      0.000711258  4.52596e-05  0.000982998  
0.72594      0.000722768  4.58343e-05  0.000995631  
0.72832      0.000734424  4.64142e-05  0.00100838   
0.7307       0.000746228  4.69994e-05  0.00102125   
0.73308      0.000758179  4.75899e-05  0.00103424   
0.73546      0.000770281  4.81856e-05  0.00104735   
0.73784      0.000782534  4.87867e-05  0.00106057   
0.74022      0.00079494   4.93932e-05  0.00107392   
0.7426       0.000807499  5.0005e-05   0.00108739   
0.74498      0.000820214  5.06222e-05  0.00110099   
0.74736      0.000833085  5.12449e-05  0.0011147    
0.74974      0.000846115  5.18731e-05  0.00112854   
0.75212      0.000859304  5.25067e-05  0.00114251   
0.7545       0.000872654  5.31458e-05  0.0011566    
0.75688      0.000886166  5.37905e-05  0.00117081   
0.75926      0.000899841  5.44408e-05  0.00118516   
0.76164      0.000913682  5.50966e-05  0.00119962   
0.76402      0.000927689  5.57581e-05  0.00121422   
0.7664       0.000941864  5.64253e-05  0.00122895   
0.76878      0.000956208  5.70981e-05  0.0012438    
0.77116      0.000970723  5.77766e-05  0.00125878   
0.77354      0.00098541   5.84608e-05  0.0012739    
0.77592      0.00100027   5.91508e-05  0.00128914   
0.7783       0.00101531   5.98466e-05  0.00130452   
0.78068      0.00103052   6.05482e-05  0.00132003   
0.78306      0.00104591   6.12557e-05  0.00133567   
0.78544      0.00106148   6.1969e-05   0.00135145   
0.78782      0.00107723   6.26882e-05  0.00136736   
0.7902       0.00109317   6.34133e-05  0.0013834    
0.79258      0.00110928   6.41444e-05  0.00139958   
0.79496      0.00112559   6.48814e-05  0.0014159    
0.79734      0.00114208   6.56245e-05  0.00143236   
0.79972      0.00115875   6.63735e-05  0.00144895   
0.8021       0.00117562   6.71287e-05  0.00146568   
0.80448      0.00119268   6.78899e-05  0.00148255   
0.80686      0.00120994   6.86572e-05  0.00149956   
0.80924      0.00122739   6.94306e-05  0.00151671   
0.81162      0.00124503   7.02102e-05  0.00153401   
0.814        0.00126287   7.0996e-05   0.00155144   
0.81638      0.00128091   7.1788e-05   0.00156902   
0.81876      0.00129916   7.25862e-05  0.00158674   
0.82114      0.0013176    7.33907e-05  0.0016046    
0.82352      0.00133625   7.42015e-05  0.00162261   
0.8259       0.0013551    7.50186e-05  0.00164076   
0.82828      0.00137417   7.5842e-05   0.00165906   
0.83066      0.00139344   7.66718e-05  0.00167751   
0.83304      0.00141292   7.7508e-05   0.0016961    
0.83542      0.00143261   7.83507e-05  0.00171484   
0.8378       0.00145252   7.91997e-05  0.00173373   
0.84018      0.00147264   8.00553e-05  0.00175277   
0.84256      0.00149298   8.09173e-05  0.00177196   
0.84494      0.00151354   8.17859e-05  0.0017913    
0.84732      0.00153432   8.2661e-05   0.00181079   
0.8497       0.00155532   8.35427e-05  0.00183044   
0.85208      0.00157655   8.4431e-05   0.00185023   
0.85446      0.001598     8.5326e-05   0.00187018   
0.85684      0.00161967   8.62276e-05  0.00189029   
0.85922      0.00164158   8.71358e-05  0.00191054   
0.8616       0.00166371   8.80508e-05  0.00193096   
0.86398      0.00168608   8.89725e-05  0.00195153   
0.86636      0.00170868   8.9901e-05   0.00197225   
0.86874      0.00173152   9.08363e-05  0.00199314   
0.87112      0.00175459   9.17783e-05  0.00201418   
0.8735       0.00177791   9.27272e-05  0.00203538   
0.87588      0.00180146   9.3683e-05   0.00205674   
0.87826      0.00182526   9.46456e-05  0.00207827   
0.88064      0.0018493    9.56151e-05  0.00209995   
0.88302      0.00187358   9.65916e-05  0.00212179   
0.8854       0.00189812   9.75751e-05  0.0021438    
0.88778      0.0019229    9.85655e-05  0.00216597   
0.89016      0.00194794   9.9563e-05   0.0021883    
0.89254      0.00197322   0.000100567  0.0022108    
0.89492      0.00199877   0.000101579  0.00223346   
0.8973       0.00202457   0.000102598  0.00225629   
0.89968      0.00205062   0.000103623  0.00227928   
0.90206      0.00207694   0.000104656  0.00230244   
0.90444      0.00210352   0.000105696  0.00232577   
0.90682      0.00213036   0.000106743  0.00234927   
0.9092       0.00215747   0.000107798  0.00237293   
0.91158      0.00218485   0.00010886   0.00239677   
0.91396      0.00221249   0.000109928  0.00242078   
0.91634      0.00224041   0.000111005  0.00244495   
0.91872      0.0022686    0.000112088  0.0024693    
0.9211       0.00229706   0.000113179  0.00249382   
0.92348      0.0023258    0.000114277  0.00251852   
0.92586      0.00235482   0.000115383  0.00254339   
0.92824      0.00238412   0.000116496  0.00256843   
0.93062      0.0024137    0.000117616  0.00259365   
0.933        0.00244357   0.000118744  0.00261904   
0.93538      0.00247372   0.000119879  0.00264461   
0.93776      0.00250416   0.000121022  0.00267036   
0.94014      0.00253489   0.000122173  0.00269629   
0.94252      0.00256591   0.000123331  0.00272239   
0.9449       0.00259722   0.000124496  0.00274867   
0.94728      0.00262883   0.000125669  0.00277514   
0.94966      0.00266074   0.00012685   0.00280178   
0.95204      0.00269295   0.000128038  0.0028286    
0.95442      0.00272545   0.000129234  0.00285561   
0.9568       0.00275826   0.000130438  0.0028828    
0.95918      0.00279138   0.000131649  0.00291017   
0.96156      0.0028248    0.000132868  0.00293773   
0.96394      0.00285854   0.000134095  0.00296547   
0.96632      0.00289258   0.00013533   0.0029934    
0.9687       0.00292694   0.000136573  0.00302151   
0.97108      0.00296161   0.000137823  0.00304981   
0.97346      0.0029966    0.000139081  0.00307829   
0.97584      0.0030319    0.000140347  0.00310697   
0.97822      0.00306753   0.000141621  0.00313583   
0.9806       0.00310348   0.000142903  0.00316488   
0.98298      0.00313976   0.000144193  0.00319412   
