# Mass = 0.0480256 Mev*(hbarc)^2/2 
# R = 7.4655 fm 
# a = 0.662 fm 
# V0 = 45.181 MeV 
# RSO = 6.861 fm 
# aSO = 0.662 fm 
# VSO = 27.855 MeV fm^2
# n = 1 
# l = 3 
# two_j = 5 
# two_t = -1 
# Energy = -8.42206 MeV
# r          u            Phi          u/r          
0.1          1.28135e-06  9.45973e-07  1.28135e-05  
0.10238      1.40775e-06  1.01503e-06  1.37502e-05  
0.10476      1.54327e-06  1.08737e-06  1.47314e-05  
0.10714      1.68833e-06  1.16307e-06  1.57581e-05  
0.10952      1.84337e-06  1.24219e-06  1.68314e-05  
0.1119       2.00884e-06  1.32482e-06  1.79521e-05  
0.11428      2.1852e-06   1.41104e-06  1.91215e-05  
0.11666      2.37291e-06  1.50091e-06  2.03404e-05  
0.11904      2.57245e-06  1.59451e-06  2.16099e-05  
0.12142      2.7843e-06   1.69192e-06  2.29311e-05  
0.1238       3.00896e-06  1.7932e-06   2.4305e-05   
0.12618      3.24694e-06  1.89845e-06  2.57326e-05  
0.12856      3.49875e-06  2.00772e-06  2.72149e-05  
0.13094      3.76491e-06  2.1211e-06   2.8753e-05   
0.13332      4.04597e-06  2.23866e-06  3.03478e-05  
0.1357       4.34245e-06  2.36048e-06  3.20004e-05  
0.13808      4.65492e-06  2.48662e-06  3.37118e-05  
0.14046      4.98395e-06  2.61717e-06  3.5483e-05   
0.14284      5.33009e-06  2.7522e-06   3.73151e-05  
0.14522      5.69394e-06  2.89178e-06  3.92091e-05  
0.1476       6.07609e-06  3.03598e-06  4.11659e-05  
0.14998      6.47713e-06  3.18489e-06  4.31866e-05  
0.15236      6.89768e-06  3.33857e-06  4.52723e-05  
0.15474      7.33836e-06  3.4971e-06   4.74238e-05  
0.15712      7.7998e-06   3.66056e-06  4.96423e-05  
0.1595       8.28264e-06  3.82901e-06  5.19288e-05  
0.16188      8.78753e-06  4.00253e-06  5.42842e-05  
0.16426      9.31513e-06  4.1812e-06   5.67096e-05  
0.16664      9.8661e-06   4.36508e-06  5.9206e-05   
0.16902      1.04411e-05  4.55426e-06  6.17745e-05  
0.1714       1.10409e-05  4.7488e-06   6.44159e-05  
0.17378      1.16661e-05  4.94878e-06  6.71313e-05  
0.17616      1.23174e-05  5.15427e-06  6.99218e-05  
0.17854      1.29956e-05  5.36534e-06  7.27882e-05  
0.18092      1.37014e-05  5.58208e-06  7.57318e-05  
0.1833       1.44355e-05  5.80454e-06  7.87534e-05  
0.18568      1.51986e-05  6.03281e-06  8.1854e-05   
0.18806      1.59916e-05  6.26695e-06  8.50347e-05  
0.19044      1.68152e-05  6.50705e-06  8.82964e-05  
0.19282      1.76701e-05  6.75317e-06  9.16402e-05  
0.1952       1.85571e-05  7.00538e-06  9.5067e-05   
0.19758      1.9477e-05   7.26375e-06  9.85779e-05  
0.19996      2.04307e-05  7.52837e-06  0.000102174  
0.20234      2.14189e-05  7.7993e-06   0.000105856  
0.20472      2.24424e-05  8.07661e-06  0.000109625  
0.2071       2.35021e-05  8.36038e-06  0.000113482  
0.20948      2.45989e-05  8.65067e-06  0.000117428  
0.21186      2.57334e-05  8.94756e-06  0.000121464  
0.21424      2.69067e-05  9.25113e-06  0.000125592  
0.21662      2.81196e-05  9.56143e-06  0.000129811  
0.219        2.93729e-05  9.87855e-06  0.000134123  
0.22138      3.06676e-05  1.02026e-05  0.000138529  
0.22376      3.20045e-05  1.05335e-05  0.000143031  
0.22614      3.33845e-05  1.08715e-05  0.000147628  
0.22852      3.48086e-05  1.12166e-05  0.000152322  
0.2309       3.62776e-05  1.15688e-05  0.000157114  
0.23328      3.77925e-05  1.19283e-05  0.000162005  
0.23566      3.93543e-05  1.22951e-05  0.000166996  
0.23804      4.09638e-05  1.26693e-05  0.000172088  
0.24042      4.26221e-05  1.3051e-05   0.000177282  
0.2428       4.433e-05    1.34401e-05  0.000182578  
0.24518      4.60886e-05  1.38369e-05  0.000187979  
0.24756      4.78989e-05  1.42413e-05  0.000193484  
0.24994      4.97618e-05  1.46534e-05  0.000199095  
0.25232      5.16784e-05  1.50734e-05  0.000204813  
0.2547       5.36496e-05  1.55012e-05  0.000210638  
0.25708      5.56765e-05  1.59369e-05  0.000216573  
0.25946      5.77601e-05  1.63807e-05  0.000222617  
0.26184      5.99015e-05  1.68326e-05  0.000228771  
0.26422      6.21016e-05  1.72925e-05  0.000235038  
0.2666       6.43616e-05  1.77608e-05  0.000241416  
0.26898      6.66825e-05  1.82372e-05  0.000247909  
0.27136      6.90654e-05  1.87221e-05  0.000254516  
0.27374      7.15113e-05  1.92154e-05  0.000261238  
0.27612      7.40214e-05  1.97171e-05  0.000268077  
0.2785       7.65968e-05  2.02274e-05  0.000275033  
0.28088      7.92385e-05  2.07464e-05  0.000282108  
0.28326      8.19477e-05  2.1274e-05   0.000289302  
0.28564      8.47255e-05  2.18104e-05  0.000296616  
0.28802      8.75731e-05  2.23557e-05  0.000304052  
0.2904       9.04915e-05  2.29098e-05  0.00031161   
0.29278      9.34819e-05  2.34729e-05  0.000319291  
0.29516      9.65456e-05  2.4045e-05   0.000327096  
0.29754      9.96836e-05  2.46263e-05  0.000335026  
0.29992      0.000102897  2.52167e-05  0.000343082  
0.3023       0.000106187  2.58163e-05  0.000351265  
0.30468      0.000109556  2.64252e-05  0.000359576  
0.30706      0.000113003  2.70435e-05  0.000368016  
0.30944      0.000116531  2.76713e-05  0.000376585  
0.31182      0.00012014   2.83085e-05  0.000385286  
0.3142       0.000123832  2.89553e-05  0.000394118  
0.31658      0.000127608  2.96117e-05  0.000403083  
0.31896      0.000131469  3.02778e-05  0.000412181  
0.32134      0.000135417  3.09537e-05  0.000421413  
0.32372      0.000139453  3.16394e-05  0.000430782  
0.3261       0.000143577  3.2335e-05   0.000440286  
0.32848      0.000147792  3.30406e-05  0.000449928  
0.33086      0.000152099  3.37561e-05  0.000459708  
0.33324      0.000156499  3.44818e-05  0.000469627  
0.33562      0.000160992  3.52176e-05  0.000479686  
0.338        0.000165582  3.59636e-05  0.000489887  
0.34038      0.000170268  3.67199e-05  0.000500229  
0.34276      0.000175052  3.74866e-05  0.000510714  
0.34514      0.000179936  3.82637e-05  0.000521343  
0.34752      0.000184921  3.90512e-05  0.000532116  
0.3499       0.000190008  3.98492e-05  0.000543035  
0.35228      0.000195199  4.06579e-05  0.000554101  
0.35466      0.000200494  4.14772e-05  0.000565314  
0.35704      0.000205896  4.23073e-05  0.000576675  
0.35942      0.000211406  4.31481e-05  0.000588186  
0.3618       0.000217025  4.39998e-05  0.000599847  
0.36418      0.000222754  4.48623e-05  0.000611659  
0.36656      0.000228595  4.57359e-05  0.000623623  
0.36894      0.00023455   4.66205e-05  0.00063574   
0.37132      0.000240619  4.75162e-05  0.00064801   
0.3737       0.000246805  4.8423e-05   0.000660436  
0.37608      0.000253108  4.93411e-05  0.000673017  
0.37846      0.00025953   5.02704e-05  0.000685754  
0.38084      0.000266073  5.12111e-05  0.000698649  
0.38322      0.000272738  5.21632e-05  0.000711702  
0.3856       0.000279527  5.31267e-05  0.000724914  
0.38798      0.00028644   5.41018e-05  0.000738287  
0.39036      0.00029348   5.50885e-05  0.00075182   
0.39274      0.000300648  5.60868e-05  0.000765515  
0.39512      0.000307946  5.70968e-05  0.000779373  
0.3975       0.000315374  5.81185e-05  0.000793394  
0.39988      0.000322935  5.91521e-05  0.00080758   
0.40226      0.00033063   6.01976e-05  0.000821932  
0.40464      0.000338461  6.1255e-05   0.000836449  
0.40702      0.000346428  6.23244e-05  0.000851134  
0.4094       0.000354535  6.34059e-05  0.000865987  
0.41178      0.000362782  6.44994e-05  0.000881008  
0.41416      0.00037117   6.56052e-05  0.000896199  
0.41654      0.000379702  6.67232e-05  0.000911561  
0.41892      0.000388379  6.78535e-05  0.000927095  
0.4213       0.000397202  6.89961e-05  0.000942801  
0.42368      0.000406173  7.01511e-05  0.000958679  
0.42606      0.000415295  7.13186e-05  0.000974732  
0.42844      0.000424567  7.24986e-05  0.00099096   
0.43082      0.000433993  7.36912e-05  0.00100736   
0.4332       0.000443573  7.48964e-05  0.00102394   
0.43558      0.000453309  7.61143e-05  0.0010407    
0.43796      0.000463203  7.7345e-05   0.00105764   
0.44034      0.000473257  7.85885e-05  0.00107475   
0.44272      0.000483472  7.98448e-05  0.00109205   
0.4451       0.00049385   8.1114e-05   0.00110953   
0.44748      0.000504392  8.23962e-05  0.00112718   
0.44986      0.000515101  8.36914e-05  0.00114502   
0.45224      0.000525977  8.49997e-05  0.00116305   
0.45462      0.000537023  8.63211e-05  0.00118126   
0.457        0.00054824   8.76557e-05  0.00119965   
0.45938      0.00055963   8.90036e-05  0.00121823   
0.46176      0.000571195  9.03647e-05  0.00123699   
0.46414      0.000582936  9.17392e-05  0.00125595   
0.46652      0.000594855  9.31271e-05  0.00127509   
0.4689       0.000606954  9.45284e-05  0.00129442   
0.47128      0.000619235  9.59433e-05  0.00131394   
0.47366      0.000631699  9.73717e-05  0.00133365   
0.47604      0.000644348  9.88137e-05  0.00135356   
0.47842      0.000657183  0.000100269  0.00137365   
0.4808       0.000670208  0.000101739  0.00139394   
0.48318      0.000683423  0.000103222  0.00141443   
0.48556      0.00069683   0.000104719  0.00143511   
0.48794      0.00071043   0.00010623   0.00145598   
0.49032      0.000724227  0.000107755  0.00147705   
0.4927       0.000738221  0.000109293  0.00149832   
0.49508      0.000752415  0.000110846  0.00151978   
0.49746      0.000766809  0.000112413  0.00154145   
0.49984      0.000781407  0.000113994  0.00156331   
0.50222      0.000796209  0.000115589  0.00158538   
0.5046       0.000811218  0.000117199  0.00160765   
0.50698      0.000826436  0.000118822  0.00163011   
0.50936      0.000841863  0.00012046   0.00165279   
0.51174      0.000857503  0.000122113  0.00167566   
0.51412      0.000873357  0.000123779  0.00169874   
0.5165       0.000889427  0.000125461  0.00172203   
0.51888      0.000905714  0.000127156  0.00174552   
0.52126      0.000922221  0.000128867  0.00176922   
0.52364      0.00093895   0.000130592  0.00179312   
0.52602      0.000955902  0.000132331  0.00181723   
0.5284       0.000973079  0.000134085  0.00184156   
0.53078      0.000990483  0.000135855  0.00186609   
0.53316      0.00100812   0.000137638  0.00189083   
0.53554      0.00102598   0.000139437  0.00191579   
0.53792      0.00104408   0.000141251  0.00194096   
0.5403       0.00106241   0.000143079  0.00196633   
0.54268      0.00108098   0.000144923  0.00199193   
0.54506      0.00109979   0.000146781  0.00201774   
0.54744      0.00111884   0.000148655  0.00204376   
0.54982      0.00113813   0.000150544  0.00207      
0.5522       0.00115766   0.000152447  0.00209645   
0.55458      0.00117744   0.000154367  0.00212313   
0.55696      0.00119747   0.000156301  0.00215002   
0.55934      0.00121775   0.000158251  0.00217713   
0.56172      0.00123829   0.000160216  0.00220446   
0.5641       0.00125908   0.000162196  0.00223201   
0.56648      0.00128012   0.000164192  0.00225978   
0.56886      0.00130142   0.000166203  0.00228777   
0.57124      0.00132298   0.00016823   0.00231599   
0.57362      0.00134481   0.000170272  0.00234442   
0.576        0.0013669    0.00017233   0.00237309   
0.57838      0.00138925   0.000174404  0.00240197   
0.58076      0.00141188   0.000176493  0.00243109   
0.58314      0.00143477   0.000178598  0.00246043   
0.58552      0.00145794   0.000180719  0.00248999   
0.5879       0.00148138   0.000182855  0.00251978   
0.59028      0.0015051    0.000185008  0.0025498    
0.59266      0.0015291    0.000187176  0.00258005   
0.59504      0.00155337   0.00018936   0.00261053   
0.59742      0.00157793   0.00019156   0.00264124   
0.5998       0.00160278   0.000193776  0.00267219   
0.60218      0.00162791   0.000196008  0.00270336   
0.60456      0.00165333   0.000198257  0.00273476   
0.60694      0.00167904   0.000200521  0.0027664    
0.60932      0.00170504   0.000202801  0.00279827   
0.6117       0.00173134   0.000205098  0.00283038   
0.61408      0.00175794   0.000207411  0.00286272   
0.61646      0.00178484   0.00020974   0.0028953    
0.61884      0.00181203   0.000212086  0.00292811   
0.62122      0.00183953   0.000214448  0.00296116   
0.6236       0.00186734   0.000216826  0.00299445   
0.62598      0.00189545   0.000219221  0.00302798   
0.62836      0.00192388   0.000221632  0.00306175   
0.63074      0.00195261   0.000224059  0.00309575   
0.63312      0.00198166   0.000226503  0.00313      
0.6355       0.00201103   0.000228964  0.00316449   
0.63788      0.00204072   0.000231441  0.00319922   
0.64026      0.00207072   0.000233935  0.00323419   
0.64264      0.00210105   0.000236445  0.0032694    
0.64502      0.0021317    0.000238973  0.00330486   
0.6474       0.00216268   0.000241516  0.00334056   
0.64978      0.00219399   0.000244077  0.00337651   
0.65216      0.00222563   0.000246655  0.0034127    
0.65454      0.0022576    0.000249249  0.00344914   
0.65692      0.00228991   0.00025186   0.00348583   
0.6593       0.00232256   0.000254488  0.00352277   
0.66168      0.00235555   0.000257133  0.00355995   
0.66406      0.00238887   0.000259795  0.00359738   
0.66644      0.00242255   0.000262474  0.00363506   
0.66882      0.00245657   0.000265169  0.00367299   
0.6712       0.00249094   0.000267882  0.00371117   
0.67358      0.00252566   0.000270612  0.0037496    
0.67596      0.00256073   0.000273359  0.00378828   
0.67834      0.00259616   0.000276124  0.00382722   
0.68072      0.00263194   0.000278905  0.00386641   
0.6831       0.00266809   0.000281704  0.00390585   
0.68548      0.0027046    0.000284519  0.00394555   
0.68786      0.00274147   0.000287352  0.0039855    
0.69024      0.0027787    0.000290203  0.00402571   
0.69262      0.00281631   0.00029307   0.00406617   
0.695        0.00285429   0.000295955  0.00410689   
0.69738      0.00289264   0.000298857  0.00414787   
0.69976      0.00293137   0.000301777  0.0041891    
0.70214      0.00297047   0.000304714  0.00423059   
0.70452      0.00300995   0.000307669  0.00427235   
0.7069       0.00304982   0.000310641  0.00431436   
0.70928      0.00309007   0.00031363   0.00435663   
0.71166      0.00313071   0.000316637  0.00439916   
0.71404      0.00317173   0.000319662  0.00444195   
0.71642      0.00321315   0.000322704  0.00448501   
0.7188       0.00325496   0.000325763  0.00452832   
0.72118      0.00329716   0.00032884   0.0045719    
0.72356      0.00333977   0.000331935  0.00461574   
0.72594      0.00338277   0.000335048  0.00465985   
0.72832      0.00342618   0.000338178  0.00470422   
0.7307       0.00346999   0.000341326  0.00474886   
0.73308      0.00351421   0.000344492  0.00479376   
0.73546      0.00355883   0.000347675  0.00483892   
0.73784      0.00360387   0.000350876  0.00488436   
0.74022      0.00364933   0.000354095  0.00493006   
0.7426       0.0036952    0.000357332  0.00497603   
0.74498      0.00374148   0.000360587  0.00502226   
0.74736      0.00378819   0.000363859  0.00506877   
0.74974      0.00383533   0.000367149  0.00511554   
0.75212      0.00388288   0.000370458  0.00516258   
0.7545       0.00393087   0.000373784  0.0052099    
0.75688      0.00397928   0.000377128  0.00525748   
0.75926      0.00402813   0.00038049   0.00530534   
0.76164      0.00407741   0.00038387   0.00535346   
0.76402      0.00412713   0.000387268  0.00540186   
0.7664       0.00417729   0.000390684  0.00545054   
0.76878      0.00422789   0.000394118  0.00549948   
0.77116      0.00427894   0.00039757   0.0055487    
0.77354      0.00433043   0.00040104   0.00559819   
0.77592      0.00438237   0.000404528  0.00564796   
0.7783       0.00443476   0.000408034  0.005698     
0.78068      0.0044876    0.000411559  0.00574832   
0.78306      0.0045409    0.000415101  0.00579891   
0.78544      0.00459466   0.000418662  0.00584979   
0.78782      0.00464887   0.000422241  0.00590093   
0.7902       0.00470355   0.000425838  0.00595236   
0.79258      0.0047587    0.000429453  0.00600406   
0.79496      0.00481431   0.000433086  0.00605604   
0.79734      0.00487039   0.000436738  0.0061083    
0.79972      0.00492695   0.000440407  0.00616084   
0.8021       0.00498398   0.000444095  0.00621366   
0.80448      0.00504148   0.000447802  0.00626676   
0.80686      0.00509947   0.000451526  0.00632014   
0.80924      0.00515793   0.000455269  0.0063738    
0.81162      0.00521688   0.00045903   0.00642774   
0.814        0.00527632   0.000462809  0.00648196   
0.81638      0.00533624   0.000466607  0.00653647   
0.81876      0.00539666   0.000470423  0.00659126   
0.82114      0.00545757   0.000474257  0.00664633   
0.82352      0.00551897   0.00047811   0.00670168   
0.8259       0.00558087   0.000481981  0.00675732   
0.82828      0.00564327   0.00048587   0.00681324   
0.83066      0.00570618   0.000489778  0.00686945   
0.83304      0.00576959   0.000493704  0.00692595   
0.83542      0.00583351   0.000497648  0.00698272   
0.8378       0.00589794   0.000501611  0.00703979   
0.84018      0.00596287   0.000505592  0.00709714   
0.84256      0.00602833   0.000509592  0.00715478   
0.84494      0.0060943    0.00051361   0.0072127    
0.84732      0.00616079   0.000517647  0.00727091   
0.8497       0.0062278    0.000521702  0.00732941   
0.85208      0.00629534   0.000525775  0.0073882    
0.85446      0.0063634    0.000529867  0.00744728   
0.85684      0.00643199   0.000533977  0.00750665   
0.85922      0.00650112   0.000538105  0.0075663    
0.8616       0.00657077   0.000542253  0.00762625   
0.86398      0.00664097   0.000546418  0.00768648   
0.86636      0.0067117    0.000550602  0.00774701   
0.86874      0.00678297   0.000554805  0.00780782   
0.87112      0.00685478   0.000559026  0.00786893   
0.8735       0.00692714   0.000563265  0.00793033   
0.87588      0.00700005   0.000567523  0.00799202   
0.87826      0.00707351   0.000571799  0.008054     
0.88064      0.00714752   0.000576094  0.00811628   
0.88302      0.00722209   0.000580407  0.00817885   
0.8854       0.00729721   0.000584739  0.00824171   
0.88778      0.00737289   0.000589089  0.00830486   
0.89016      0.00744914   0.000593458  0.00836831   
0.89254      0.00752595   0.000597845  0.00843206   
0.89492      0.00760332   0.000602251  0.00849609   
0.8973       0.00768127   0.000606675  0.00856043   
0.89968      0.00775979   0.000611118  0.00862505   
0.90206      0.00783888   0.000615579  0.00868998   
0.90444      0.00791855   0.000620058  0.00875519   
0.90682      0.00799879   0.000624557  0.00882071   
0.9092       0.00807962   0.000629073  0.00888652   
0.91158      0.00816103   0.000633608  0.00895263   
0.91396      0.00824303   0.000638162  0.00901903   
0.91634      0.00832562   0.000642733  0.00908573   
0.91872      0.0084088    0.000647324  0.00915273   
0.9211       0.00849257   0.000651933  0.00922003   
0.92348      0.00857693   0.00065656   0.00928762   
0.92586      0.00866189   0.000661206  0.00935551   
0.92824      0.00874746   0.00066587   0.0094237    
0.93062      0.00883362   0.000670552  0.00949219   
0.933        0.0089204    0.000675253  0.00956098   
0.93538      0.00900777   0.000679973  0.00963007   
0.93776      0.00909576   0.000684711  0.00969946   
0.94014      0.00918436   0.000689467  0.00976915   
0.94252      0.00927358   0.000694242  0.00983913   
0.9449       0.00936341   0.000699035  0.00990942   
0.94728      0.00945386   0.000703846  0.00998001   
0.94966      0.00954494   0.000708676  0.0100509    
0.95204      0.00963663   0.000713524  0.0101221    
0.95442      0.00972896   0.00071839   0.0101936    
0.9568       0.00982191   0.000723275  0.0102654    
0.95918      0.00991549   0.000728179  0.0103375    
0.96156      0.0100097    0.0007331    0.0104099    
0.96394      0.0101046    0.00073804   0.0104826    
0.96632      0.0102001    0.000742998  0.0105556    
0.9687       0.0102962    0.000747975  0.0106289    
0.97108      0.010393     0.000752969  0.0107025    
0.97346      0.0104904    0.000757982  0.0107764    
0.97584      0.0105884    0.000763014  0.0108506    
0.97822      0.0106872    0.000768063  0.0109251    
0.9806       0.0107865    0.000773131  0.0109999    
0.98298      0.0108866    0.000778217  0.011075     
