# Mass = 0.0480256 Mev*(hbarc)^2/2 
# R = 7.46549 fm 
# a = 0.662 fm 
# V0 = 45.1811 MeV 
# RSO = 6.86114 fm 
# aSO = 0.662 fm 
# VSO = 27.8547 MeV fm^2
# n = 0 
# l = 1 
# two_j = 3 
# two_t = -1 
# Energy = -37.1982 MeV
# r          u            Phi          u/r          
0.1          0.000661283  3.65094e-06  0.00661283   
0.10238      0.000693133  3.73766e-06  0.0067702    
0.10476      0.000725732  3.82438e-06  0.00692757   
0.10714      0.000759078  3.91108e-06  0.00708492   
0.10952      0.000793172  3.99778e-06  0.00724225   
0.1119       0.000828013  4.08446e-06  0.00739958   
0.11428      0.000863601  4.17114e-06  0.00755689   
0.11666      0.000899937  4.25781e-06  0.00771418   
0.11904      0.00093702   4.34446e-06  0.00787147   
0.12142      0.000974849  4.43111e-06  0.00802874   
0.1238       0.00101343   4.51774e-06  0.008186     
0.12618      0.00105275   4.60437e-06  0.00834324   
0.12856      0.00109282   4.69098e-06  0.00850047   
0.13094      0.00113364   4.77758e-06  0.00865769   
0.13332      0.0011752    4.86417e-06  0.00881489   
0.1357       0.00121751   4.95075e-06  0.00897208   
0.13808      0.00126057   5.03731e-06  0.00912926   
0.14046      0.00130437   5.12386e-06  0.00928643   
0.14284      0.00134892   5.2104e-06   0.00944358   
0.14522      0.00139422   5.29693e-06  0.00960071   
0.1476       0.00144026   5.38344e-06  0.00975784   
0.14998      0.00148704   5.46994e-06  0.00991495   
0.15236      0.00153458   5.55642e-06  0.010072     
0.15474      0.00158285   5.64289e-06  0.0102291    
0.15712      0.00163188   5.72935e-06  0.0103862    
0.1595       0.00168165   5.81579e-06  0.0105432    
0.16188      0.00173216   5.90222e-06  0.0107003    
0.16426      0.00178342   5.98863e-06  0.0108573    
0.16664      0.00183542   6.07502e-06  0.0110143    
0.16902      0.00188817   6.16141e-06  0.0111713    
0.1714       0.00194167   6.24777e-06  0.0113283    
0.17378      0.00199591   6.33412e-06  0.0114852    
0.17616      0.00205089   6.42045e-06  0.0116422    
0.17854      0.00210661   6.50676e-06  0.0117991    
0.18092      0.00216309   6.59306e-06  0.011956     
0.1833       0.0022203    6.67934e-06  0.0121129    
0.18568      0.00227826   6.76561e-06  0.0122698    
0.18806      0.00233696   6.85186e-06  0.0124267    
0.19044      0.00239641   6.93808e-06  0.0125835    
0.19282      0.0024566    7.0243e-06   0.0127404    
0.1952       0.00251753   7.11049e-06  0.0128972    
0.19758      0.0025792    7.19666e-06  0.013054     
0.19996      0.00264162   7.28282e-06  0.0132108    
0.20234      0.00270478   7.36895e-06  0.0133675    
0.20472      0.00276869   7.45507e-06  0.0135243    
0.2071       0.00283333   7.54117e-06  0.013681     
0.20948      0.00289872   7.62725e-06  0.0138377    
0.21186      0.00296485   7.71331e-06  0.0139944    
0.21424      0.00303172   7.79935e-06  0.0141511    
0.21662      0.00309934   7.88537e-06  0.0143077    
0.219        0.00316769   7.97136e-06  0.0144644    
0.22138      0.00323679   8.05734e-06  0.014621     
0.22376      0.00330663   8.1433e-06   0.0147776    
0.22614      0.00337721   8.22923e-06  0.0149341    
0.22852      0.00344853   8.31515e-06  0.0150907    
0.2309       0.00352059   8.40104e-06  0.0152472    
0.23328      0.00359339   8.48691e-06  0.0154038    
0.23566      0.00366693   8.57276e-06  0.0155603    
0.23804      0.00374121   8.65858e-06  0.0157167    
0.24042      0.00381623   8.74439e-06  0.0158732    
0.2428       0.00389199   8.83017e-06  0.0160296    
0.24518      0.00396849   8.91593e-06  0.016186     
0.24756      0.00404573   9.00166e-06  0.0163424    
0.24994      0.00412371   9.08737e-06  0.0164988    
0.25232      0.00420243   9.17306e-06  0.0166552    
0.2547       0.00428188   9.25872e-06  0.0168115    
0.25708      0.00436208   9.34436e-06  0.0169678    
0.25946      0.00444301   9.42998e-06  0.0171241    
0.26184      0.00452468   9.51557e-06  0.0172803    
0.26422      0.00460709   9.60113e-06  0.0174366    
0.2666       0.00469024   9.68667e-06  0.0175928    
0.26898      0.00477412   9.77219e-06  0.017749     
0.27136      0.00485874   9.85768e-06  0.0179051    
0.27374      0.0049441    9.94314e-06  0.0180613    
0.27612      0.00503019   1.00286e-05  0.0182174    
0.2785       0.00511702   1.0114e-05   0.0183735    
0.28088      0.00520459   1.01994e-05  0.0185296    
0.28326      0.00529289   1.02847e-05  0.0186856    
0.28564      0.00538193   1.03701e-05  0.0188417    
0.28802      0.00547171   1.04554e-05  0.0189977    
0.2904       0.00556222   1.05407e-05  0.0191536    
0.29278      0.00565346   1.06259e-05  0.0193096    
0.29516      0.00574544   1.07111e-05  0.0194655    
0.29754      0.00583816   1.07963e-05  0.0196214    
0.29992      0.00593161   1.08815e-05  0.0197773    
0.3023       0.00602579   1.09666e-05  0.0199331    
0.30468      0.00612071   1.10517e-05  0.020089     
0.30706      0.00621636   1.11368e-05  0.0202448    
0.30944      0.00631274   1.12219e-05  0.0204005    
0.31182      0.00640986   1.13069e-05  0.0205563    
0.3142       0.00650771   1.13919e-05  0.020712     
0.31658      0.00660629   1.14769e-05  0.0208677    
0.31896      0.00670561   1.15618e-05  0.0210233    
0.32134      0.00680565   1.16467e-05  0.021179     
0.32372      0.00690643   1.17316e-05  0.0213346    
0.3261       0.00700795   1.18164e-05  0.0214902    
0.32848      0.00711019   1.19012e-05  0.0216457    
0.33086      0.00721316   1.1986e-05   0.0218012    
0.33324      0.00731687   1.20708e-05  0.0219567    
0.33562      0.0074213    1.21555e-05  0.0221122    
0.338        0.00752646   1.22402e-05  0.0222676    
0.34038      0.00763236   1.23248e-05  0.0224231    
0.34276      0.00773898   1.24094e-05  0.0225784    
0.34514      0.00784634   1.2494e-05   0.0227338    
0.34752      0.00795442   1.25786e-05  0.0228891    
0.3499       0.00806323   1.26631e-05  0.0230444    
0.35228      0.00817278   1.27476e-05  0.0231997    
0.35466      0.00828304   1.28321e-05  0.0233549    
0.35704      0.00839404   1.29165e-05  0.0235101    
0.35942      0.00850577   1.30009e-05  0.0236653    
0.3618       0.00861822   1.30852e-05  0.0238204    
0.36418      0.0087314    1.31696e-05  0.0239755    
0.36656      0.0088453    1.32538e-05  0.0241306    
0.36894      0.00895994   1.33381e-05  0.0242856    
0.37132      0.0090753    1.34223e-05  0.0244406    
0.3737       0.00919138   1.35065e-05  0.0245956    
0.37608      0.00930819   1.35907e-05  0.0247506    
0.37846      0.00942573   1.36748e-05  0.0249055    
0.38084      0.00954399   1.37588e-05  0.0250604    
0.38322      0.00966298   1.38429e-05  0.0252152    
0.3856       0.00978269   1.39269e-05  0.02537      
0.38798      0.00990312   1.40109e-05  0.0255248    
0.39036      0.0100243    1.40948e-05  0.0256796    
0.39274      0.0101462    1.41787e-05  0.0258343    
0.39512      0.0102688    1.42625e-05  0.025989     
0.3975       0.0103921    1.43464e-05  0.0261436    
0.39988      0.0105161    1.44302e-05  0.0262982    
0.40226      0.0106409    1.45139e-05  0.0264528    
0.40464      0.0107664    1.45976e-05  0.0266074    
0.40702      0.0108926    1.46813e-05  0.0267619    
0.4094       0.0110196    1.47649e-05  0.0269164    
0.41178      0.0111472    1.48485e-05  0.0270708    
0.41416      0.0112756    1.49321e-05  0.0272252    
0.41654      0.0114047    1.50156e-05  0.0273796    
0.41892      0.0115345    1.50991e-05  0.0275339    
0.4213       0.0116651    1.51825e-05  0.0276882    
0.42368      0.0117963    1.52659e-05  0.0278425    
0.42606      0.0119283    1.53493e-05  0.0279967    
0.42844      0.012061     1.54326e-05  0.0281509    
0.43082      0.0121944    1.55159e-05  0.0283051    
0.4332       0.0123285    1.55991e-05  0.0284592    
0.43558      0.0124634    1.56823e-05  0.0286133    
0.43796      0.0125989    1.57654e-05  0.0287673    
0.44034      0.0127352    1.58486e-05  0.0289213    
0.44272      0.0128722    1.59316e-05  0.0290753    
0.4451       0.0130099    1.60147e-05  0.0292292    
0.44748      0.0131484    1.60977e-05  0.0293831    
0.44986      0.0132875    1.61806e-05  0.029537     
0.45224      0.0134274    1.62635e-05  0.0296908    
0.45462      0.0135679    1.63464e-05  0.0298446    
0.457        0.0137092    1.64292e-05  0.0299983    
0.45938      0.0138512    1.6512e-05   0.030152     
0.46176      0.013994     1.65947e-05  0.0303057    
0.46414      0.0141374    1.66774e-05  0.0304593    
0.46652      0.0142815    1.676e-05    0.0306129    
0.4689       0.0144264    1.68426e-05  0.0307664    
0.47128      0.014572     1.69252e-05  0.0309199    
0.47366      0.0147182    1.70077e-05  0.0310734    
0.47604      0.0148652    1.70902e-05  0.0312268    
0.47842      0.0150129    1.71726e-05  0.0313802    
0.4808       0.0151613    1.7255e-05   0.0315336    
0.48318      0.0153105    1.73373e-05  0.0316869    
0.48556      0.0154603    1.74196e-05  0.0318401    
0.48794      0.0156108    1.75019e-05  0.0319933    
0.49032      0.0157621    1.75841e-05  0.0321465    
0.4927       0.015914     1.76662e-05  0.0322996    
0.49508      0.0160667    1.77483e-05  0.0324527    
0.49746      0.0162201    1.78304e-05  0.0326058    
0.49984      0.0163742    1.79124e-05  0.0327588    
0.50222      0.0165289    1.79944e-05  0.0329117    
0.5046       0.0166844    1.80763e-05  0.0330647    
0.50698      0.0168406    1.81582e-05  0.0332175    
0.50936      0.0169975    1.824e-05    0.0333704    
0.51174      0.0171552    1.83218e-05  0.0335232    
0.51412      0.0173135    1.84035e-05  0.0336759    
0.5165       0.0174725    1.84852e-05  0.0338286    
0.51888      0.0176322    1.85668e-05  0.0339813    
0.52126      0.0177926    1.86484e-05  0.0341339    
0.52364      0.0179538    1.873e-05    0.0342865    
0.52602      0.0181156    1.88115e-05  0.034439     
0.5284       0.0182781    1.88929e-05  0.0345915    
0.53078      0.0184414    1.89743e-05  0.0347439    
0.53316      0.0186053    1.90556e-05  0.0348963    
0.53554      0.01877      1.91369e-05  0.0350487    
0.53792      0.0189353    1.92182e-05  0.035201     
0.5403       0.0191013    1.92994e-05  0.0353532    
0.54268      0.0192681    1.93805e-05  0.0355054    
0.54506      0.0194355    1.94616e-05  0.0356576    
0.54744      0.0196037    1.95426e-05  0.0358097    
0.54982      0.0197725    1.96236e-05  0.0359618    
0.5522       0.019942     1.97046e-05  0.0361138    
0.55458      0.0201123    1.97854e-05  0.0362658    
0.55696      0.0202832    1.98663e-05  0.0364177    
0.55934      0.0204548    1.99471e-05  0.0365696    
0.56172      0.0206272    2.00278e-05  0.0367214    
0.5641       0.0208002    2.01085e-05  0.0368732    
0.56648      0.0209739    2.01891e-05  0.037025     
0.56886      0.0211483    2.02697e-05  0.0371766    
0.57124      0.0213234    2.03502e-05  0.0373283    
0.57362      0.0214992    2.04306e-05  0.0374799    
0.576        0.0216757    2.05111e-05  0.0376314    
0.57838      0.0218529    2.05914e-05  0.0377829    
0.58076      0.0220308    2.06717e-05  0.0379344    
0.58314      0.0222093    2.0752e-05   0.0380858    
0.58552      0.0223886    2.08322e-05  0.0382371    
0.5879       0.0225685    2.09123e-05  0.0383884    
0.59028      0.0227492    2.09924e-05  0.0385397    
0.59266      0.0229305    2.10724e-05  0.0386909    
0.59504      0.0231125    2.11524e-05  0.038842     
0.59742      0.0232953    2.12323e-05  0.0389931    
0.5998       0.0234787    2.13122e-05  0.0391442    
0.60218      0.0236628    2.1392e-05   0.0392951    
0.60456      0.0238475    2.14718e-05  0.0394461    
0.60694      0.024033     2.15515e-05  0.039597     
0.60932      0.0242191    2.16311e-05  0.0397478    
0.6117       0.024406     2.17107e-05  0.0398986    
0.61408      0.0245935    2.17902e-05  0.0400494    
0.61646      0.0247817    2.18697e-05  0.0402       
0.61884      0.0249706    2.19491e-05  0.0403507    
0.62122      0.0251602    2.20285e-05  0.0405013    
0.6236       0.0253505    2.21078e-05  0.0406518    
0.62598      0.0255414    2.2187e-05   0.0408023    
0.62836      0.025733     2.22662e-05  0.0409527    
0.63074      0.0259253    2.23453e-05  0.0411031    
0.63312      0.0261183    2.24244e-05  0.0412534    
0.6355       0.026312     2.25034e-05  0.0414036    
0.63788      0.0265064    2.25824e-05  0.0415539    
0.64026      0.0267014    2.26612e-05  0.041704     
0.64264      0.0268971    2.27401e-05  0.0418541    
0.64502      0.0270935    2.28189e-05  0.0420042    
0.6474       0.0272906    2.28976e-05  0.0421541    
0.64978      0.0274883    2.29762e-05  0.0423041    
0.65216      0.0276868    2.30548e-05  0.042454     
0.65454      0.0278859    2.31333e-05  0.0426038    
0.65692      0.0280857    2.32118e-05  0.0427536    
0.6593       0.0282861    2.32902e-05  0.0429033    
0.66168      0.0284873    2.33686e-05  0.0430529    
0.66406      0.0286891    2.34469e-05  0.0432026    
0.66644      0.0288916    2.35251e-05  0.0433521    
0.66882      0.0290947    2.36033e-05  0.0435016    
0.6712       0.0292986    2.36814e-05  0.043651     
0.67358      0.0295031    2.37594e-05  0.0438004    
0.67596      0.0297083    2.38374e-05  0.0439497    
0.67834      0.0299141    2.39153e-05  0.044099     
0.68072      0.0301206    2.39932e-05  0.0442482    
0.6831       0.0303278    2.4071e-05   0.0443974    
0.68548      0.0305357    2.41487e-05  0.0445464    
0.68786      0.0307442    2.42264e-05  0.0446955    
0.69024      0.0309534    2.4304e-05   0.0448445    
0.69262      0.0311633    2.43815e-05  0.0449934    
0.695        0.0313739    2.4459e-05   0.0451422    
0.69738      0.0315851    2.45364e-05  0.045291     
0.69976      0.0317969    2.46137e-05  0.0454398    
0.70214      0.0320095    2.4691e-05   0.0455885    
0.70452      0.0322227    2.47682e-05  0.0457371    
0.7069       0.0324366    2.48454e-05  0.0458857    
0.70928      0.0326511    2.49225e-05  0.0460342    
0.71166      0.0328663    2.49995e-05  0.0461826    
0.71404      0.0330822    2.50765e-05  0.046331     
0.71642      0.0332987    2.51534e-05  0.0464793    
0.7188       0.0335159    2.52302e-05  0.0466276    
0.72118      0.0337338    2.53069e-05  0.0467758    
0.72356      0.0339523    2.53836e-05  0.0469239    
0.72594      0.0341715    2.54603e-05  0.047072     
0.72832      0.0343913    2.55368e-05  0.04722      
0.7307       0.0346118    2.56133e-05  0.047368     
0.73308      0.034833     2.56898e-05  0.0475159    
0.73546      0.0350548    2.57661e-05  0.0476637    
0.73784      0.0352772    2.58424e-05  0.0478115    
0.74022      0.0355004    2.59186e-05  0.0479592    
0.7426       0.0357242    2.59948e-05  0.0481069    
0.74498      0.0359486    2.60709e-05  0.0482545    
0.74736      0.0361737    2.61469e-05  0.048402     
0.74974      0.0363995    2.62229e-05  0.0485495    
0.75212      0.0366259    2.62987e-05  0.0486969    
0.7545       0.0368529    2.63746e-05  0.0488442    
0.75688      0.0370807    2.64503e-05  0.0489915    
0.75926      0.037309     2.6526e-05   0.0491387    
0.76164      0.0375381    2.66016e-05  0.0492858    
0.76402      0.0377677    2.66771e-05  0.0494329    
0.7664       0.0379981    2.67526e-05  0.0495799    
0.76878      0.038229     2.6828e-05   0.0497269    
0.77116      0.0384607    2.69033e-05  0.0498738    
0.77354      0.0386929    2.69786e-05  0.0500206    
0.77592      0.0389259    2.70538e-05  0.0501674    
0.7783       0.0391594    2.71289e-05  0.0503141    
0.78068      0.0393937    2.72039e-05  0.0504607    
0.78306      0.0396285    2.72789e-05  0.0506073    
0.78544      0.039864     2.73538e-05  0.0507538    
0.78782      0.0401002    2.74286e-05  0.0509002    
0.7902       0.040337     2.75034e-05  0.0510466    
0.79258      0.0405744    2.75781e-05  0.0511929    
0.79496      0.0408125    2.76527e-05  0.0513391    
0.79734      0.0410513    2.77272e-05  0.0514853    
0.79972      0.0412906    2.78017e-05  0.0516314    
0.8021       0.0415306    2.78761e-05  0.0517774    
0.80448      0.0417713    2.79504e-05  0.0519234    
0.80686      0.0420126    2.80247e-05  0.0520693    
0.80924      0.0422545    2.80988e-05  0.0522151    
0.81162      0.0424971    2.81729e-05  0.0523609    
0.814        0.0427403    2.8247e-05   0.0525066    
0.81638      0.0429842    2.83209e-05  0.0526522    
0.81876      0.0432287    2.83948e-05  0.0527977    
0.82114      0.0434738    2.84686e-05  0.0529432    
0.82352      0.0437196    2.85423e-05  0.0530887    
0.8259       0.043966     2.8616e-05   0.053234     
0.82828      0.044213     2.86896e-05  0.0533793    
0.83066      0.0444607    2.87631e-05  0.0535245    
0.83304      0.044709     2.88365e-05  0.0536697    
0.83542      0.0449579    2.89099e-05  0.0538147    
0.8378       0.0452075    2.89832e-05  0.0539597    
0.84018      0.0454577    2.90564e-05  0.0541047    
0.84256      0.0457085    2.91295e-05  0.0542495    
0.84494      0.04596      2.92025e-05  0.0543943    
0.84732      0.046212     2.92755e-05  0.0545391    
0.8497       0.0464648    2.93484e-05  0.0546837    
0.85208      0.0467181    2.94212e-05  0.0548283    
0.85446      0.0469721    2.9494e-05   0.0549728    
0.85684      0.0472267    2.95666e-05  0.0551173    
0.85922      0.0474819    2.96392e-05  0.0552616    
0.8616       0.0477378    2.97117e-05  0.0554059    
0.86398      0.0479942    2.97842e-05  0.0555502    
0.86636      0.0482513    2.98565e-05  0.0556943    
0.86874      0.0485091    2.99288e-05  0.0558384    
0.87112      0.0487674    3.0001e-05   0.0559824    
0.8735       0.0490264    3.00731e-05  0.0561264    
0.87588      0.049286     3.01452e-05  0.0562702    
0.87826      0.0495462    3.02171e-05  0.056414     
0.88064      0.049807     3.0289e-05   0.0565577    
0.88302      0.0500685    3.03608e-05  0.0567014    
0.8854       0.0503305    3.04325e-05  0.056845     
0.88778      0.0505932    3.05042e-05  0.0569884    
0.89016      0.0508565    3.05757e-05  0.0571319    
0.89254      0.0511204    3.06472e-05  0.0572752    
0.89492      0.051385     3.07186e-05  0.0574185    
0.8973       0.0516501    3.079e-05    0.0575617    
0.89968      0.0519159    3.08612e-05  0.0577048    
0.90206      0.0521823    3.09324e-05  0.0578479    
0.90444      0.0524493    3.10034e-05  0.0579909    
0.90682      0.0527169    3.10744e-05  0.0581338    
0.9092       0.0529851    3.11454e-05  0.0582766    
0.91158      0.0532539    3.12162e-05  0.0584194    
0.91396      0.0535234    3.12869e-05  0.058562     
0.91634      0.0537934    3.13576e-05  0.0587046    
0.91872      0.0540641    3.14282e-05  0.0588472    
0.9211       0.0543353    3.14987e-05  0.0589896    
0.92348      0.0546072    3.15691e-05  0.059132     
0.92586      0.0548797    3.16395e-05  0.0592743    
0.92824      0.0551528    3.17097e-05  0.0594165    
0.93062      0.0554265    3.17799e-05  0.0595586    
0.933        0.0557008    3.185e-05    0.0597007    
0.93538      0.0559757    3.192e-05    0.0598427    
0.93776      0.0562512    3.19899e-05  0.0599846    
0.94014      0.0565273    3.20598e-05  0.0601264    
0.94252      0.056804     3.21295e-05  0.0602682    
0.9449       0.0570813    3.21992e-05  0.0604099    
0.94728      0.0573592    3.22688e-05  0.0605515    
0.94966      0.0576377    3.23383e-05  0.060693     
0.95204      0.0579168    3.24077e-05  0.0608344    
0.95442      0.0581965    3.2477e-05   0.0609758    
0.9568       0.0584768    3.25463e-05  0.0611171    
0.95918      0.0587577    3.26154e-05  0.0612583    
0.96156      0.0590392    3.26845e-05  0.0613994    
0.96394      0.0593213    3.27535e-05  0.0615405    
0.96632      0.059604     3.28224e-05  0.0616814    
0.9687       0.0598873    3.28912e-05  0.0618223    
0.97108      0.0601711    3.29599e-05  0.0619631    
0.97346      0.0604556    3.30286e-05  0.0621038    
0.97584      0.0607407    3.30971e-05  0.0622445    
0.97822      0.0610263    3.31656e-05  0.0623851    
0.9806       0.0613125    3.3234e-05   0.0625255    
0.98298      0.0615994    3.33023e-05  0.0626659    
