# Mass = 0.0480256 Mev*(hbarc)^2/2 
# R = 7.46549 fm 
# a = 0.662 fm 
# V0 = 45.1811 MeV 
# RSO = 6.86114 fm 
# aSO = 0.662 fm 
# VSO = 27.8547 MeV fm^2
# n = 0 
# l = 3 
# two_j = 5 
# two_t = -1 
# Energy = -25.1097 MeV
# r          u            Phi          u/r          
0.1          4.43814e-07  2.15736e-08  4.43814e-06  
0.10238      4.87596e-07  2.31496e-08  4.76261e-06  
0.10476      5.34538e-07  2.48005e-08  5.1025e-06   
0.10714      5.84788e-07  2.65281e-08  5.45817e-06  
0.10952      6.38498e-07  2.83341e-08  5.82997e-06  
0.1119       6.95823e-07  3.02202e-08  6.21826e-06  
0.11428      7.56922e-07  3.21882e-08  6.6234e-06   
0.11666      8.21957e-07  3.42397e-08  7.04575e-06  
0.11904      8.91092e-07  3.63765e-08  7.48565e-06  
0.12142      9.64498e-07  3.86003e-08  7.94348e-06  
0.1238       1.04234e-06  4.09129e-08  8.41959e-06  
0.12618      1.12481e-06  4.33159e-08  8.91433e-06  
0.12856      1.21207e-06  4.58112e-08  9.42805e-06  
0.13094      1.30431e-06  4.84003e-08  9.96113e-06  
0.13332      1.40171e-06  5.10851e-08  1.05139e-05  
0.1357       1.50447e-06  5.38673e-08  1.10867e-05  
0.13808      1.61277e-06  5.67485e-08  1.168e-05    
0.14046      1.72682e-06  5.97305e-08  1.2294e-05   
0.14284      1.8468e-06   6.28151e-08  1.29291e-05  
0.14522      1.97293e-06  6.60039e-08  1.35858e-05  
0.1476       2.1054e-06   6.92986e-08  1.42642e-05  
0.14998      2.24443e-06  7.2701e-08   1.49649e-05  
0.15236      2.39024e-06  7.62128e-08  1.56881e-05  
0.15474      2.54303e-06  7.98357e-08  1.64342e-05  
0.15712      2.70302e-06  8.35714e-08  1.72035e-05  
0.1595       2.87044e-06  8.74216e-08  1.79965e-05  
0.16188      3.04552e-06  9.1388e-08   1.88134e-05  
0.16426      3.22848e-06  9.54724e-08  1.96547e-05  
0.16664      3.41956e-06  9.96765e-08  2.05206e-05  
0.16902      3.61899e-06  1.04002e-07  2.14116e-05  
0.1714       3.82701e-06  1.0845e-07   2.23279e-05  
0.17378      4.04386e-06  1.13024e-07  2.327e-05    
0.17616      4.26979e-06  1.17723e-07  2.42382e-05  
0.17854      4.50506e-06  1.22551e-07  2.52328e-05  
0.18092      4.7499e-06   1.27509e-07  2.62542e-05  
0.1833       5.00459e-06  1.32598e-07  2.73027e-05  
0.18568      5.26937e-06  1.37821e-07  2.83788e-05  
0.18806      5.54451e-06  1.43179e-07  2.94827e-05  
0.19044      5.83028e-06  1.48673e-07  3.06148e-05  
0.19282      6.12694e-06  1.54306e-07  3.17754e-05  
0.1952       6.43477e-06  1.60078e-07  3.2965e-05   
0.19758      6.75405e-06  1.65993e-07  3.41839e-05  
0.19996      7.08505e-06  1.72051e-07  3.54323e-05  
0.20234      7.42805e-06  1.78254e-07  3.67108e-05  
0.20472      7.78335e-06  1.84604e-07  3.80195e-05  
0.2071       8.15123e-06  1.91103e-07  3.93589e-05  
0.20948      8.53199e-06  1.97751e-07  4.07294e-05  
0.21186      8.92591e-06  2.04552e-07  4.21312e-05  
0.21424      9.3333e-06   2.11506e-07  4.35647e-05  
0.21662      9.75446e-06  2.18616e-07  4.50303e-05  
0.219        1.01897e-05  2.25882e-07  4.65283e-05  
0.22138      1.06393e-05  2.33307e-07  4.80591e-05  
0.22376      1.11037e-05  2.40892e-07  4.96231e-05  
0.22614      1.1583e-05   2.4864e-07   5.12205e-05  
0.22852      1.20777e-05  2.56551e-07  5.28517e-05  
0.2309       1.2588e-05   2.64627e-07  5.45171e-05  
0.23328      1.31143e-05  2.7287e-07   5.6217e-05   
0.23566      1.36569e-05  2.81282e-07  5.79518e-05  
0.23804      1.42162e-05  2.89865e-07  5.97218e-05  
0.24042      1.47924e-05  2.98619e-07  6.15274e-05  
0.2428       1.5386e-05   3.07547e-07  6.33688e-05  
0.24518      1.59972e-05  3.16651e-07  6.52466e-05  
0.24756      1.66264e-05  3.25931e-07  6.7161e-05   
0.24994      1.72739e-05  3.3539e-07   6.91123e-05  
0.25232      1.79402e-05  3.45029e-07  7.11009e-05  
0.2547       1.86255e-05  3.54851e-07  7.31272e-05  
0.25708      1.93302e-05  3.64856e-07  7.51915e-05  
0.25946      2.00547e-05  3.75046e-07  7.72941e-05  
0.26184      2.07994e-05  3.85423e-07  7.94354e-05  
0.26422      2.15645e-05  3.95989e-07  8.16158e-05  
0.2666       2.23506e-05  4.06746e-07  8.38356e-05  
0.26898      2.31578e-05  4.17694e-07  8.60951e-05  
0.27136      2.39868e-05  4.28835e-07  8.83946e-05  
0.27374      2.48377e-05  4.40172e-07  9.07346e-05  
0.27612      2.5711e-05   4.51706e-07  9.31154e-05  
0.2785       2.66071e-05  4.63438e-07  9.55372e-05  
0.28088      2.75264e-05  4.7537e-07   9.80006e-05  
0.28326      2.84692e-05  4.87504e-07  0.000100506  
0.28564      2.9436e-05   4.99841e-07  0.000103053  
0.28802      3.04272e-05  5.12384e-07  0.000105643  
0.2904       3.14432e-05  5.25133e-07  0.000108275  
0.29278      3.24843e-05  5.3809e-07   0.000110951  
0.29516      3.35509e-05  5.51258e-07  0.00011367   
0.29754      3.46436e-05  5.64636e-07  0.000116434  
0.29992      3.57627e-05  5.78228e-07  0.000119241  
0.3023       3.69087e-05  5.92035e-07  0.000122093  
0.30468      3.80818e-05  6.06058e-07  0.00012499   
0.30706      3.92827e-05  6.203e-07    0.000127932  
0.30944      4.05116e-05  6.3476e-07   0.000130919  
0.31182      4.17691e-05  6.49442e-07  0.000133953  
0.3142       4.30556e-05  6.64347e-07  0.000137032  
0.31658      4.43715e-05  6.79477e-07  0.000140159  
0.31896      4.57172e-05  6.94832e-07  0.000143332  
0.32134      4.70932e-05  7.10416e-07  0.000146553  
0.32372      4.85e-05     7.26228e-07  0.000149821  
0.3261       4.9938e-05   7.42272e-07  0.000153137  
0.32848      5.14076e-05  7.58548e-07  0.000156501  
0.33086      5.29093e-05  7.75058e-07  0.000159914  
0.33324      5.44436e-05  7.91803e-07  0.000163376  
0.33562      5.60109e-05  8.08786e-07  0.000166888  
0.338        5.76117e-05  8.26008e-07  0.000170449  
0.34038      5.92465e-05  8.43471e-07  0.00017406   
0.34276      6.09157e-05  8.61175e-07  0.000177721  
0.34514      6.26198e-05  8.79123e-07  0.000181433  
0.34752      6.43593e-05  8.97316e-07  0.000185196  
0.3499       6.61347e-05  9.15757e-07  0.00018901   
0.35228      6.79464e-05  9.34445e-07  0.000192876  
0.35466      6.9795e-05   9.53383e-07  0.000196794  
0.35704      7.16809e-05  9.72573e-07  0.000200764  
0.35942      7.36046e-05  9.92016e-07  0.000204787  
0.3618       7.55667e-05  1.01171e-06  0.000208863  
0.36418      7.75676e-05  1.03167e-06  0.000212993  
0.36656      7.96079e-05  1.05188e-06  0.000217176  
0.36894      8.16879e-05  1.07235e-06  0.000221412  
0.37132      8.38083e-05  1.09308e-06  0.000225704  
0.3737       8.59696e-05  1.11408e-06  0.00023005   
0.37608      8.81723e-05  1.13534e-06  0.000234451  
0.37846      9.04168e-05  1.15686e-06  0.000238907  
0.38084      9.27038e-05  1.17865e-06  0.000243419  
0.38322      9.50337e-05  1.20071e-06  0.000247987  
0.3856       9.74071e-05  1.22304e-06  0.000252612  
0.38798      9.98244e-05  1.24564e-06  0.000257293  
0.39036      0.000102286  1.26852e-06  0.000262031  
0.39274      0.000104793  1.29167e-06  0.000266826  
0.39512      0.000107346  1.31509e-06  0.000271679  
0.3975       0.000109945  1.3388e-06   0.00027659   
0.39988      0.00011259   1.36278e-06  0.00028156   
0.40226      0.000115283  1.38705e-06  0.000286588  
0.40464      0.000118023  1.41159e-06  0.000291675  
0.40702      0.000120812  1.43643e-06  0.000296821  
0.4094       0.00012365   1.46154e-06  0.000302027  
0.41178      0.000126537  1.48695e-06  0.000307293  
0.41416      0.000129474  1.51264e-06  0.000312619  
0.41654      0.000132462  1.53862e-06  0.000318006  
0.41892      0.000135501  1.5649e-06   0.000323453  
0.4213       0.000138592  1.59146e-06  0.000328962  
0.42368      0.000141735  1.61832e-06  0.000334533  
0.42606      0.000144931  1.64548e-06  0.000340165  
0.42844      0.00014818   1.67294e-06  0.00034586   
0.43082      0.000151484  1.70069e-06  0.000351617  
0.4332       0.000154842  1.72875e-06  0.000357438  
0.43558      0.000158255  1.7571e-06   0.000363321  
0.43796      0.000161725  1.78577e-06  0.000369268  
0.44034      0.00016525   1.81473e-06  0.000375279  
0.44272      0.000168833  1.844e-06    0.000381354  
0.4451       0.000172473  1.87358e-06  0.000387493  
0.44748      0.000176172  1.90347e-06  0.000393698  
0.44986      0.000179929  1.93367e-06  0.000399967  
0.45224      0.000183746  1.96419e-06  0.000406302  
0.45462      0.000187623  1.99501e-06  0.000412703  
0.457        0.000191561  2.02616e-06  0.00041917   
0.45938      0.00019556   2.05762e-06  0.000425703  
0.46176      0.00019962   2.08939e-06  0.000432303  
0.46414      0.000203744  2.12149e-06  0.000438971  
0.46652      0.00020793   2.15391e-06  0.000445705  
0.4689       0.000212181  2.18665e-06  0.000452507  
0.47128      0.000216496  2.21971e-06  0.000459378  
0.47366      0.000220875  2.2531e-06   0.000466316  
0.47604      0.000225321  2.28682e-06  0.000473324  
0.47842      0.000229833  2.32087e-06  0.0004804    
0.4808       0.000234412  2.35524e-06  0.000487545  
0.48318      0.000239058  2.38995e-06  0.000494761  
0.48556      0.000243773  2.42499e-06  0.000502046  
0.48794      0.000248557  2.46036e-06  0.000509401  
0.49032      0.000253411  2.49607e-06  0.000516827  
0.4927       0.000258334  2.53212e-06  0.000524324  
0.49508      0.000263329  2.5685e-06   0.000531892  
0.49746      0.000268395  2.60523e-06  0.000539531  
0.49984      0.000273534  2.64229e-06  0.000547242  
0.50222      0.000278745  2.6797e-06   0.000555026  
0.5046       0.00028403   2.71745e-06  0.000562882  
0.50698      0.000289389  2.75555e-06  0.00057081   
0.50936      0.000294824  2.79399e-06  0.000578812  
0.51174      0.000300333  2.83279e-06  0.000586887  
0.51412      0.00030592   2.87193e-06  0.000595036  
0.5165       0.000311583  2.91142e-06  0.000603258  
0.51888      0.000317324  2.95127e-06  0.000611555  
0.52126      0.000323143  2.99147e-06  0.000619927  
0.52364      0.000329041  3.03202e-06  0.000628373  
0.52602      0.000335019  3.07293e-06  0.000636895  
0.5284       0.000341078  3.1142e-06   0.000645492  
0.53078      0.000347218  3.15583e-06  0.000654165  
0.53316      0.000353439  3.19782e-06  0.000662914  
0.53554      0.000359744  3.24017e-06  0.00067174   
0.53792      0.000366131  3.28288e-06  0.000680642  
0.5403       0.000372603  3.32596e-06  0.000689622  
0.54268      0.000379159  3.3694e-06   0.000698679  
0.54506      0.000385801  3.41321e-06  0.000707813  
0.54744      0.000392528  3.45739e-06  0.000717025  
0.54982      0.000399343  3.50194e-06  0.000726316  
0.5522       0.000406246  3.54687e-06  0.000735685  
0.55458      0.000413236  3.59216e-06  0.000745134  
0.55696      0.000420316  3.63783e-06  0.000754661  
0.55934      0.000427486  3.68387e-06  0.000764268  
0.56172      0.000434746  3.73029e-06  0.000773954  
0.5641       0.000442097  3.77709e-06  0.000783721  
0.56648      0.000449541  3.82427e-06  0.000793568  
0.56886      0.000457077  3.87183e-06  0.000803496  
0.57124      0.000464706  3.91977e-06  0.000813505  
0.57362      0.00047243   3.96809e-06  0.000823595  
0.576        0.000480249  4.0168e-06   0.000833766  
0.57838      0.000488164  4.0659e-06   0.00084402   
0.58076      0.000496176  4.11538e-06  0.000854356  
0.58314      0.000504284  4.16525e-06  0.000864774  
0.58552      0.000512491  4.21551e-06  0.000875275  
0.5879       0.000520796  4.26616e-06  0.000885858  
0.59028      0.000529201  4.3172e-06   0.000896526  
0.59266      0.000537707  4.36864e-06  0.000907277  
0.59504      0.000546313  4.42047e-06  0.000918112  
0.59742      0.000555021  4.47269e-06  0.000929031  
0.5998       0.000563833  4.52532e-06  0.000940034  
0.60218      0.000572747  4.57834e-06  0.000951123  
0.60456      0.000581766  4.63176e-06  0.000962296  
0.60694      0.00059089   4.68559e-06  0.000973555  
0.60932      0.000600119  4.73982e-06  0.0009849    
0.6117       0.000609455  4.79445e-06  0.000996331  
0.61408      0.000618899  4.84948e-06  0.00100785   
0.61646      0.000628451  4.90492e-06  0.00101945   
0.61884      0.000638111  4.96077e-06  0.00103114   
0.62122      0.000647882  5.01703e-06  0.00104292   
0.6236       0.000657763  5.0737e-06   0.00105478   
0.62598      0.000667756  5.13077e-06  0.00106674   
0.62836      0.00067786   5.18827e-06  0.00107878   
0.63074      0.000688078  5.24617e-06  0.00109091   
0.63312      0.000698409  5.30449e-06  0.00110312   
0.6355       0.000708855  5.36322e-06  0.00111543   
0.63788      0.000719417  5.42237e-06  0.00112782   
0.64026      0.000730095  5.48194e-06  0.00114031   
0.64264      0.00074089   5.54193e-06  0.00115288   
0.64502      0.000751802  5.60234e-06  0.00116555   
0.6474       0.000762834  5.66318e-06  0.0011783    
0.64978      0.000773985  5.72443e-06  0.00119115   
0.65216      0.000785256  5.78611e-06  0.00120409   
0.65454      0.000796649  5.84822e-06  0.00121711   
0.65692      0.000808164  5.91075e-06  0.00123023   
0.6593       0.000819801  5.97371e-06  0.00124344   
0.66168      0.000831562  6.0371e-06   0.00125674   
0.66406      0.000843448  6.10091e-06  0.00127014   
0.66644      0.00085546   6.16516e-06  0.00128363   
0.66882      0.000867597  6.22985e-06  0.00129721   
0.6712       0.000879862  6.29496e-06  0.00131088   
0.67358      0.000892254  6.36051e-06  0.00132464   
0.67596      0.000904776  6.4265e-06   0.0013385    
0.67834      0.000917427  6.49292e-06  0.00135246   
0.68072      0.000930208  6.55978e-06  0.00136651   
0.6831       0.000943121  6.62709e-06  0.00138065   
0.68548      0.000956166  6.69483e-06  0.00139489   
0.68786      0.000969345  6.76301e-06  0.00140922   
0.69024      0.000982657  6.83163e-06  0.00142365   
0.69262      0.000996104  6.9007e-06   0.00143817   
0.695        0.00100969   6.97022e-06  0.00145279   
0.69738      0.00102341   7.04018e-06  0.0014675    
0.69976      0.00103726   7.11058e-06  0.00148231   
0.70214      0.00105126   7.18144e-06  0.00149722   
0.70452      0.00106539   7.25274e-06  0.00151222   
0.7069       0.00107967   7.3245e-06   0.00152733   
0.70928      0.00109408   7.3967e-06   0.00154253   
0.71166      0.00110864   7.46936e-06  0.00155782   
0.71404      0.00112334   7.54247e-06  0.00157322   
0.71642      0.00113818   7.61604e-06  0.00158871   
0.7188       0.00115317   7.69006e-06  0.0016043    
0.72118      0.0011683    7.76454e-06  0.00161999   
0.72356      0.00118358   7.83948e-06  0.00163578   
0.72594      0.00119901   7.91488e-06  0.00165167   
0.72832      0.00121459   7.99073e-06  0.00166766   
0.7307       0.00123031   8.06705e-06  0.00168374   
0.73308      0.00124619   8.14383e-06  0.00169993   
0.73546      0.00126221   8.22107e-06  0.00171622   
0.73784      0.00127839   8.29877e-06  0.00173261   
0.74022      0.00129472   8.37694e-06  0.0017491    
0.7426       0.0013112    8.45558e-06  0.00176569   
0.74498      0.00132784   8.53469e-06  0.00178238   
0.74736      0.00134463   8.61426e-06  0.00179917   
0.74974      0.00136158   8.6943e-06   0.00181607   
0.75212      0.00137868   8.77481e-06  0.00183306   
0.7545       0.00139595   8.85579e-06  0.00185016   
0.75688      0.00141337   8.93725e-06  0.00186737   
0.75926      0.00143096   9.01918e-06  0.00188467   
0.76164      0.0014487    9.10158e-06  0.00190208   
0.76402      0.00146661   9.18446e-06  0.00191959   
0.7664       0.00148468   9.26781e-06  0.00193721   
0.76878      0.00150291   9.35164e-06  0.00195493   
0.77116      0.00152131   9.43595e-06  0.00197275   
0.77354      0.00153987   9.52074e-06  0.00199068   
0.77592      0.0015586    9.606e-06    0.00200871   
0.7783       0.00157749   9.69175e-06  0.00202685   
0.78068      0.00159656   9.77798e-06  0.00204509   
0.78306      0.00161579   9.8647e-06   0.00206344   
0.78544      0.0016352    9.95189e-06  0.00208189   
0.78782      0.00165478   1.00396e-05  0.00210045   
0.7902       0.00167452   1.01277e-05  0.00211911   
0.79258      0.00169445   1.02164e-05  0.00213789   
0.79496      0.00171454   1.03055e-05  0.00215676   
0.79734      0.00173481   1.03952e-05  0.00217575   
0.79972      0.00175526   1.04853e-05  0.00219484   
0.8021       0.00177588   1.05759e-05  0.00221404   
0.80448      0.00179668   1.0667e-05   0.00223335   
0.80686      0.00181766   1.07586e-05  0.00225276   
0.80924      0.00183882   1.08507e-05  0.00227229   
0.81162      0.00186017   1.09433e-05  0.00229192   
0.814        0.00188169   1.10363e-05  0.00231166   
0.81638      0.00190339   1.11299e-05  0.00233151   
0.81876      0.00192528   1.1224e-05   0.00235146   
0.82114      0.00194736   1.13185e-05  0.00237153   
0.82352      0.00196962   1.14136e-05  0.00239171   
0.8259       0.00199206   1.15091e-05  0.00241199   
0.82828      0.0020147    1.16052e-05  0.00243239   
0.83066      0.00203752   1.17018e-05  0.0024529    
0.83304      0.00206053   1.17988e-05  0.00247351   
0.83542      0.00208374   1.18964e-05  0.00249424   
0.8378       0.00210713   1.19945e-05  0.00251508   
0.84018      0.00213072   1.2093e-05   0.00253603   
0.84256      0.0021545    1.21921e-05  0.00255709   
0.84494      0.00217848   1.22917e-05  0.00257826   
0.84732      0.00220265   1.23918e-05  0.00259954   
0.8497       0.00222701   1.24924e-05  0.00262094   
0.85208      0.00225158   1.25935e-05  0.00264245   
0.85446      0.00227634   1.26951e-05  0.00266407   
0.85684      0.0023013    1.27972e-05  0.0026858    
0.85922      0.00232647   1.28999e-05  0.00270765   
0.8616       0.00235183   1.3003e-05   0.00272961   
0.86398      0.0023774    1.31067e-05  0.00275168   
0.86636      0.00240317   1.32108e-05  0.00277387   
0.86874      0.00242915   1.33155e-05  0.00279617   
0.87112      0.00245533   1.34207e-05  0.00281859   
0.8735       0.00248171   1.35264e-05  0.00284112   
0.87588      0.00250831   1.36327e-05  0.00286376   
0.87826      0.00253511   1.37394e-05  0.00288652   
0.88064      0.00256213   1.38467e-05  0.00290939   
0.88302      0.00258935   1.39545e-05  0.00293238   
0.8854       0.00261678   1.40628e-05  0.00295548   
0.88778      0.00264443   1.41716e-05  0.0029787    
0.89016      0.00267229   1.42809e-05  0.00300204   
0.89254      0.00270037   1.43908e-05  0.00302549   
0.89492      0.00272866   1.45012e-05  0.00304906   
0.8973       0.00275717   1.46121e-05  0.00307274   
0.89968      0.0027859    1.47235e-05  0.00309654   
0.90206      0.00281484   1.48355e-05  0.00312046   
0.90444      0.00284401   1.4948e-05   0.00314449   
0.90682      0.00287339   1.5061e-05   0.00316865   
0.9092       0.002903     1.51745e-05  0.00319292   
0.91158      0.00293283   1.52886e-05  0.0032173    
0.91396      0.00296288   1.54032e-05  0.00324181   
0.91634      0.00299316   1.55183e-05  0.00326643   
0.91872      0.00302367   1.56339e-05  0.00329118   
0.9211       0.0030544    1.57501e-05  0.00331604   
0.92348      0.00308536   1.58668e-05  0.00334102   
0.92586      0.00311655   1.5984e-05   0.00336611   
0.92824      0.00314797   1.61018e-05  0.00339133   
0.93062      0.00317962   1.62201e-05  0.00341667   
0.933        0.0032115    1.63389e-05  0.00344213   
0.93538      0.00324362   1.64583e-05  0.0034677    
0.93776      0.00327597   1.65782e-05  0.0034934    
0.94014      0.00330855   1.66986e-05  0.00351922   
0.94252      0.00334138   1.68196e-05  0.00354515   
0.9449       0.00337444   1.69411e-05  0.00357121   
0.94728      0.00340773   1.70631e-05  0.00359739   
0.94966      0.00344127   1.71857e-05  0.00362369   
0.95204      0.00347505   1.73088e-05  0.00365011   
0.95442      0.00350907   1.74325e-05  0.00367665   
0.9568       0.00354333   1.75567e-05  0.00370332   
0.95918      0.00357784   1.76814e-05  0.0037301    
0.96156      0.00361259   1.78067e-05  0.00375701   
0.96394      0.00364759   1.79325e-05  0.00378404   
0.96632      0.00368283   1.80589e-05  0.00381119   
0.9687       0.00371832   1.81858e-05  0.00383847   
0.97108      0.00375406   1.83132e-05  0.00386586   
0.97346      0.00379005   1.84412e-05  0.00389338   
0.97584      0.0038263    1.85697e-05  0.00392103   
0.97822      0.00386279   1.86988e-05  0.00394879   
0.9806       0.00389954   1.88284e-05  0.00397669   
0.98298      0.00393654   1.89585e-05  0.0040047    
