# Mass = 0.0479598 Mev*(hbarc)^2/2 
# R = 7.46549 fm 
# a = 0.662 fm 
# V0 = 59.5746 MeV 
# RSO = 6.86114 fm 
# aSO = 0.662 fm 
# VSO = 27.9312 MeV fm^2
# n = 0 
# l = 2 
# two_j = 3 
# two_t = 1 
# Energy = -44.9229 MeV
# r          u            Phi          u/r          
0.1          2.04925e-05  6.71697e-08  0.000204925  
0.10238      2.19907e-05  7.04011e-08  0.000214795  
0.10476      2.35601e-05  7.37084e-08  0.000224896  
0.10714      2.52025e-05  7.70914e-08  0.000235229  
0.10952      2.69193e-05  8.05502e-08  0.000245793  
0.1119       2.87123e-05  8.40847e-08  0.000256589  
0.11428      3.05831e-05  8.76949e-08  0.000267615  
0.11666      3.25334e-05  9.13808e-08  0.000278873  
0.11904      3.45647e-05  9.51424e-08  0.000290362  
0.12142      3.66789e-05  9.89796e-08  0.000302083  
0.1238       3.88775e-05  1.02892e-07  0.000314034  
0.12618      4.11621e-05  1.06881e-07  0.000326217  
0.12856      4.35344e-05  1.10945e-07  0.000338631  
0.13094      4.59961e-05  1.15084e-07  0.000351276  
0.13332      4.85487e-05  1.19299e-07  0.000364152  
0.1357       5.1194e-05   1.2359e-07   0.000377259  
0.13808      5.39336e-05  1.27956e-07  0.000390597  
0.14046      5.67691e-05  1.32397e-07  0.000404166  
0.14284      5.97022e-05  1.36914e-07  0.000417965  
0.14522      6.27345e-05  1.41506e-07  0.000431996  
0.1476       6.58676e-05  1.46173e-07  0.000446258  
0.14998      6.91032e-05  1.50916e-07  0.00046075   
0.15236      7.2443e-05   1.55734e-07  0.000475473  
0.15474      7.58885e-05  1.60628e-07  0.000490426  
0.15712      7.94415e-05  1.65597e-07  0.00050561   
0.1595       8.31035e-05  1.7064e-07   0.000521025  
0.16188      8.68762e-05  1.75759e-07  0.00053667   
0.16426      9.07612e-05  1.80954e-07  0.000552546  
0.16664      9.47602e-05  1.86223e-07  0.000568652  
0.16902      9.88748e-05  1.91567e-07  0.000584989  
0.1714       0.000103107  1.96987e-07  0.000601555  
0.17378      0.000107457  2.02481e-07  0.000618352  
0.17616      0.000111928  2.08051e-07  0.00063538   
0.17854      0.000116522  2.13695e-07  0.000652637  
0.18092      0.000121239  2.19415e-07  0.000670125  
0.1833       0.000126081  2.25209e-07  0.000687842  
0.18568      0.000131051  2.31078e-07  0.000705789  
0.18806      0.000136149  2.37023e-07  0.000723967  
0.19044      0.000141378  2.43041e-07  0.000742374  
0.19282      0.000146738  2.49135e-07  0.000761011  
0.1952       0.000152232  2.55303e-07  0.000779878  
0.19758      0.000157861  2.61546e-07  0.000798974  
0.19996      0.000163627  2.67864e-07  0.0008183    
0.20234      0.000169532  2.74256e-07  0.000837855  
0.20472      0.000175576  2.80723e-07  0.00085764   
0.2071       0.000181762  2.87265e-07  0.000877654  
0.20948      0.000188092  2.93881e-07  0.000897898  
0.21186      0.000194566  3.00571e-07  0.000918371  
0.21424      0.000201187  3.07336e-07  0.000939073  
0.21662      0.000207956  3.14176e-07  0.000960004  
0.219        0.000214875  3.21089e-07  0.000981164  
0.22138      0.000221945  3.28077e-07  0.00100255   
0.22376      0.000229169  3.3514e-07   0.00102417   
0.22614      0.000236547  3.42276e-07  0.00104602   
0.22852      0.000244081  3.49487e-07  0.00106809   
0.2309       0.000251773  3.56772e-07  0.0010904    
0.23328      0.000259624  3.64131e-07  0.00111293   
0.23566      0.000267637  3.71564e-07  0.00113569   
0.23804      0.000275813  3.79071e-07  0.00115868   
0.24042      0.000284152  3.86652e-07  0.0011819    
0.2428       0.000292658  3.94308e-07  0.00120535   
0.24518      0.000301331  4.02037e-07  0.00122902   
0.24756      0.000310174  4.09839e-07  0.00125292   
0.24994      0.000319187  4.17716e-07  0.00127706   
0.25232      0.000328373  4.25667e-07  0.00130141   
0.2547       0.000337732  4.33691e-07  0.001326     
0.25708      0.000347268  4.41789e-07  0.00135082   
0.25946      0.00035698   4.4996e-07   0.00137586   
0.26184      0.000366871  4.58205e-07  0.00140113   
0.26422      0.000376943  4.66524e-07  0.00142662   
0.2666       0.000387196  4.74916e-07  0.00145235   
0.26898      0.000397634  4.83382e-07  0.0014783    
0.27136      0.000408256  4.91921e-07  0.00150448   
0.27374      0.000419065  5.00533e-07  0.00153089   
0.27612      0.000430063  5.09219e-07  0.00155752   
0.2785       0.00044125   5.17977e-07  0.00158438   
0.28088      0.00045263   5.2681e-07   0.00161147   
0.28326      0.000464202  5.35715e-07  0.00163878   
0.28564      0.000475969  5.44693e-07  0.00166633   
0.28802      0.000487933  5.53745e-07  0.00169409   
0.2904       0.000500094  5.62869e-07  0.00172209   
0.29278      0.000512455  5.72066e-07  0.00175031   
0.29516      0.000525018  5.81337e-07  0.00177876   
0.29754      0.000537782  5.9068e-07   0.00180743   
0.29992      0.000550752  6.00095e-07  0.00183633   
0.3023       0.000563927  6.09584e-07  0.00186545   
0.30468      0.00057731   6.19145e-07  0.00189481   
0.30706      0.000590901  6.28779e-07  0.00192438   
0.30944      0.000604704  6.38486e-07  0.00195419   
0.31182      0.000618718  6.48265e-07  0.00198422   
0.3142       0.000632947  6.58116e-07  0.00201447   
0.31658      0.00064739   6.6804e-07   0.00204495   
0.31896      0.000662051  6.78036e-07  0.00207566   
0.32134      0.00067693   6.88105e-07  0.00210659   
0.32372      0.00069203   6.98245e-07  0.00213774   
0.3261       0.000707351  7.08458e-07  0.00216912   
0.32848      0.000722895  7.18743e-07  0.00220073   
0.33086      0.000738664  7.291e-07    0.00223256   
0.33324      0.00075466   7.3953e-07   0.00226461   
0.33562      0.000770883  7.50031e-07  0.00229689   
0.338        0.000787336  7.60603e-07  0.0023294    
0.34038      0.00080402   7.71248e-07  0.00236213   
0.34276      0.000820937  7.81965e-07  0.00239508   
0.34514      0.000838088  7.92753e-07  0.00242826   
0.34752      0.000855475  8.03613e-07  0.00246166   
0.3499       0.000873099  8.14544e-07  0.00249528   
0.35228      0.000890962  8.25547e-07  0.00252913   
0.35466      0.000909065  8.36621e-07  0.0025632    
0.35704      0.000927411  8.47767e-07  0.0025975    
0.35942      0.000946     8.58984e-07  0.00263202   
0.3618       0.000964834  8.70272e-07  0.00266676   
0.36418      0.000983915  8.81632e-07  0.00270173   
0.36656      0.00100324   8.93062e-07  0.00273692   
0.36894      0.00102282   9.04564e-07  0.00277233   
0.37132      0.00104265   9.16137e-07  0.00280796   
0.3737       0.00106274   9.2778e-07   0.00284382   
0.37608      0.00108307   9.39495e-07  0.0028799    
0.37846      0.00110367   9.5128e-07   0.0029162    
0.38084      0.00112452   9.63136e-07  0.00295273   
0.38322      0.00114563   9.75063e-07  0.00298948   
0.3856       0.001167     9.8706e-07   0.00302645   
0.38798      0.00118863   9.99128e-07  0.00306364   
0.39036      0.00121053   1.01127e-06  0.00310105   
0.39274      0.00123269   1.02347e-06  0.00313869   
0.39512      0.00125512   1.03575e-06  0.00317654   
0.3975       0.00127781   1.0481e-06   0.00321462   
0.39988      0.00130078   1.06052e-06  0.00325292   
0.40226      0.00132402   1.07301e-06  0.00329144   
0.40464      0.00134753   1.08557e-06  0.00333018   
0.40702      0.00137131   1.0982e-06   0.00336915   
0.4094       0.00139537   1.1109e-06   0.00340833   
0.41178      0.00141971   1.12367e-06  0.00344773   
0.41416      0.00144432   1.13651e-06  0.00348736   
0.41654      0.00146922   1.14942e-06  0.00352721   
0.41892      0.0014944    1.1624e-06   0.00356727   
0.4213       0.00151986   1.17544e-06  0.00360756   
0.42368      0.00154561   1.18856e-06  0.00364806   
0.42606      0.00157165   1.20175e-06  0.00368879   
0.42844      0.00159797   1.215e-06    0.00372973   
0.43082      0.00162458   1.22833e-06  0.0037709    
0.4332       0.00165148   1.24172e-06  0.00381228   
0.43558      0.00167868   1.25519e-06  0.00385389   
0.43796      0.00170617   1.26872e-06  0.00389571   
0.44034      0.00173395   1.28232e-06  0.00393775   
0.44272      0.00176203   1.29599e-06  0.00398001   
0.4451       0.00179041   1.30973e-06  0.00402249   
0.44748      0.00181909   1.32354e-06  0.00406519   
0.44986      0.00184807   1.33741e-06  0.00410811   
0.45224      0.00187736   1.35136e-06  0.00415124   
0.45462      0.00190695   1.36537e-06  0.0041946    
0.457        0.00193684   1.37945e-06  0.00423817   
0.45938      0.00196705   1.3936e-06   0.00428196   
0.46176      0.00199756   1.40782e-06  0.00432596   
0.46414      0.00202838   1.42211e-06  0.00437019   
0.46652      0.00205951   1.43646e-06  0.00441463   
0.4689       0.00209096   1.45088e-06  0.00445929   
0.47128      0.00212272   1.46537e-06  0.00450417   
0.47366      0.0021548    1.47993e-06  0.00454926   
0.47604      0.0021872    1.49455e-06  0.00459457   
0.47842      0.00221991   1.50925e-06  0.0046401    
0.4808       0.00225295   1.52401e-06  0.00468584   
0.48318      0.00228631   1.53884e-06  0.0047318    
0.48556      0.00231999   1.55373e-06  0.00477797   
0.48794      0.002354     1.56869e-06  0.00482437   
0.49032      0.00238834   1.58372e-06  0.00487097   
0.4927       0.002423     1.59882e-06  0.0049178    
0.49508      0.00245799   1.61399e-06  0.00496484   
0.49746      0.00249331   1.62922e-06  0.00501209   
0.49984      0.00252897   1.64451e-06  0.00505956   
0.50222      0.00256496   1.65988e-06  0.00510724   
0.5046       0.00260129   1.67531e-06  0.00515514   
0.50698      0.00263795   1.69081e-06  0.00520326   
0.50936      0.00267495   1.70637e-06  0.00525159   
0.51174      0.00271229   1.722e-06    0.00530013   
0.51412      0.00274997   1.7377e-06   0.00534889   
0.5165       0.00278799   1.75346e-06  0.00539786   
0.51888      0.00282636   1.76929e-06  0.00544704   
0.52126      0.00286508   1.78519e-06  0.00549644   
0.52364      0.00290414   1.80115e-06  0.00554605   
0.52602      0.00294355   1.81718e-06  0.00559588   
0.5284       0.0029833    1.83327e-06  0.00564592   
0.53078      0.00302341   1.84943e-06  0.00569617   
0.53316      0.00306388   1.86566e-06  0.00574664   
0.53554      0.00310469   1.88195e-06  0.00579732   
0.53792      0.00314587   1.8983e-06   0.00584821   
0.5403       0.0031874    1.91472e-06  0.00589931   
0.54268      0.00322928   1.93121e-06  0.00595062   
0.54506      0.00327153   1.94776e-06  0.00600215   
0.54744      0.00331414   1.96437e-06  0.00605389   
0.54982      0.00335711   1.98106e-06  0.00610584   
0.5522       0.00340045   1.9978e-06   0.006158     
0.55458      0.00344415   2.01461e-06  0.00621038   
0.55696      0.00348822   2.03149e-06  0.00626296   
0.55934      0.00353265   2.04843e-06  0.00631576   
0.56172      0.00357746   2.06543e-06  0.00636876   
0.5641       0.00362264   2.0825e-06   0.00642198   
0.56648      0.00366819   2.09963e-06  0.00647541   
0.56886      0.00371411   2.11683e-06  0.00652904   
0.57124      0.00376041   2.13409e-06  0.00658289   
0.57362      0.00380709   2.15142e-06  0.00663695   
0.576        0.00385414   2.16881e-06  0.00669122   
0.57838      0.00390157   2.18626e-06  0.00674569   
0.58076      0.00394939   2.20377e-06  0.00680038   
0.58314      0.00399758   2.22135e-06  0.00685527   
0.58552      0.00404616   2.239e-06    0.00691038   
0.5879       0.00409513   2.2567e-06   0.00696569   
0.59028      0.00414448   2.27447e-06  0.00702121   
0.59266      0.00419422   2.29231e-06  0.00707694   
0.59504      0.00424435   2.3102e-06   0.00713288   
0.59742      0.00429487   2.32816e-06  0.00718902   
0.5998       0.00434578   2.34618e-06  0.00724538   
0.60218      0.00439708   2.36427e-06  0.00730194   
0.60456      0.00444878   2.38242e-06  0.00735871   
0.60694      0.00450087   2.40063e-06  0.00741568   
0.60932      0.00455337   2.4189e-06   0.00747287   
0.6117       0.00460626   2.43723e-06  0.00753026   
0.61408      0.00465955   2.45563e-06  0.00758785   
0.61646      0.00471324   2.47409e-06  0.00764565   
0.61884      0.00476734   2.49261e-06  0.00770366   
0.62122      0.00482183   2.51119e-06  0.00776188   
0.6236       0.00487674   2.52984e-06  0.0078203    
0.62598      0.00493205   2.54854e-06  0.00787893   
0.62836      0.00498777   2.56731e-06  0.00793776   
0.63074      0.0050439    2.58614e-06  0.0079968    
0.63312      0.00510044   2.60503e-06  0.00805604   
0.6355       0.00515739   2.62398e-06  0.00811548   
0.63788      0.00521476   2.643e-06    0.00817514   
0.64026      0.00527254   2.66207e-06  0.00823499   
0.64264      0.00533073   2.68121e-06  0.00829505   
0.64502      0.00538935   2.7004e-06   0.00835532   
0.6474       0.00544838   2.71966e-06  0.00841579   
0.64978      0.00550783   2.73898e-06  0.00847646   
0.65216      0.00556771   2.75835e-06  0.00853733   
0.65454      0.005628     2.77779e-06  0.00859841   
0.65692      0.00568873   2.79729e-06  0.00865969   
0.6593       0.00574987   2.81685e-06  0.00872118   
0.66168      0.00581144   2.83647e-06  0.00878286   
0.66406      0.00587345   2.85615e-06  0.00884475   
0.66644      0.00593588   2.87589e-06  0.00890684   
0.66882      0.00599874   2.89568e-06  0.00896914   
0.6712       0.00606203   2.91554e-06  0.00903163   
0.67358      0.00612576   2.93546e-06  0.00909433   
0.67596      0.00618992   2.95543e-06  0.00915723   
0.67834      0.00625451   2.97547e-06  0.00922032   
0.68072      0.00631955   2.99556e-06  0.00928362   
0.6831       0.00638502   3.01572e-06  0.00934712   
0.68548      0.00645093   3.03593e-06  0.00941082   
0.68786      0.00651728   3.0562e-06   0.00947473   
0.69024      0.00658408   3.07653e-06  0.00953883   
0.69262      0.00665132   3.09692e-06  0.00960313   
0.695        0.006719     3.11737e-06  0.00966763   
0.69738      0.00678713   3.13787e-06  0.00973233   
0.69976      0.00685571   3.15844e-06  0.00979723   
0.70214      0.00692473   3.17906e-06  0.00986232   
0.70452      0.00699421   3.19974e-06  0.00992762   
0.7069       0.00706413   3.22048e-06  0.00999311   
0.70928      0.00713451   3.24127e-06  0.0100588    
0.71166      0.00720534   3.26212e-06  0.0101247    
0.71404      0.00727663   3.28303e-06  0.0101908    
0.71642      0.00734837   3.304e-06    0.0102571    
0.7188       0.00742057   3.32502e-06  0.0103236    
0.72118      0.00749323   3.34611e-06  0.0103902    
0.72356      0.00756635   3.36725e-06  0.0104571    
0.72594      0.00763993   3.38844e-06  0.0105242    
0.72832      0.00771397   3.40969e-06  0.0105915    
0.7307       0.00778848   3.431e-06    0.0106589    
0.73308      0.00786345   3.45237e-06  0.0107266    
0.73546      0.00793888   3.47379e-06  0.0107944    
0.73784      0.00801479   3.49527e-06  0.0108625    
0.74022      0.00809116   3.5168e-06   0.0109308    
0.7426       0.008168     3.53839e-06  0.0109992    
0.74498      0.00824532   3.56004e-06  0.0110678    
0.74736      0.0083231    3.58174e-06  0.0111367    
0.74974      0.00840136   3.6035e-06   0.0112057    
0.75212      0.00848009   3.62531e-06  0.0112749    
0.7545       0.0085593    3.64718e-06  0.0113443    
0.75688      0.00863899   3.6691e-06   0.0114139    
0.75926      0.00871915   3.69108e-06  0.0114837    
0.76164      0.00879979   3.71311e-06  0.0115537    
0.76402      0.00888092   3.7352e-06   0.0116239    
0.7664       0.00896252   3.75735e-06  0.0116943    
0.76878      0.00904461   3.77954e-06  0.0117649    
0.77116      0.00912718   3.8018e-06   0.0118357    
0.77354      0.00921024   3.8241e-06   0.0119066    
0.77592      0.00929378   3.84646e-06  0.0119778    
0.7783       0.00937782   3.86888e-06  0.0120491    
0.78068      0.00946234   3.89135e-06  0.0121206    
0.78306      0.00954735   3.91387e-06  0.0121924    
0.78544      0.00963285   3.93645e-06  0.0122643    
0.78782      0.00971884   3.95908e-06  0.0123364    
0.7902       0.00980533   3.98176e-06  0.0124087    
0.79258      0.00989231   4.0045e-06   0.0124812    
0.79496      0.00997979   4.02729e-06  0.0125538    
0.79734      0.0100678    4.05013e-06  0.0126267    
0.79972      0.0101562    4.07302e-06  0.0126997    
0.8021       0.0102452    4.09597e-06  0.012773     
0.80448      0.0103347    4.11897e-06  0.0128464    
0.80686      0.0104247    4.14203e-06  0.01292      
0.80924      0.0105151    4.16513e-06  0.0129938    
0.81162      0.0106061    4.18829e-06  0.0130678    
0.814        0.0106976    4.2115e-06   0.013142     
0.81638      0.0107896    4.23477e-06  0.0132164    
0.81876      0.0108821    4.25808e-06  0.013291     
0.82114      0.0109751    4.28145e-06  0.0133657    
0.82352      0.0110686    4.30486e-06  0.0134406    
0.8259       0.0111627    4.32833e-06  0.0135157    
0.82828      0.0112572    4.35185e-06  0.0135911    
0.83066      0.0113523    4.37542e-06  0.0136665    
0.83304      0.0114478    4.39905e-06  0.0137422    
0.83542      0.0115439    4.42272e-06  0.0138181    
0.8378       0.0116405    4.44644e-06  0.0138941    
0.84018      0.0117376    4.47022e-06  0.0139704    
0.84256      0.0118353    4.49404e-06  0.0140468    
0.84494      0.0119334    4.51792e-06  0.0141234    
0.84732      0.0120321    4.54184e-06  0.0142002    
0.8497       0.0121313    4.56582e-06  0.0142771    
0.85208      0.012231     4.58985e-06  0.0143543    
0.85446      0.0123312    4.61392e-06  0.0144316    
0.85684      0.012432     4.63805e-06  0.0145091    
0.85922      0.0125333    4.66222e-06  0.0145868    
0.8616       0.0126351    4.68644e-06  0.0146647    
0.86398      0.0127375    4.71072e-06  0.0147428    
0.86636      0.0128404    4.73504e-06  0.014821     
0.86874      0.0129438    4.75941e-06  0.0148995    
0.87112      0.0130477    4.78383e-06  0.0149781    
0.8735       0.0131522    4.8083e-06   0.0150569    
0.87588      0.0132572    4.83282e-06  0.0151358    
0.87826      0.0133627    4.85738e-06  0.015215     
0.88064      0.0134688    4.88199e-06  0.0152943    
0.88302      0.0135754    4.90666e-06  0.0153738    
0.8854       0.0136826    4.93137e-06  0.0154535    
0.88778      0.0137903    4.95612e-06  0.0155334    
0.89016      0.0138985    4.98093e-06  0.0156135    
0.89254      0.0140073    5.00578e-06  0.0156937    
0.89492      0.0141166    5.03068e-06  0.0157741    
0.8973       0.0142264    5.05563e-06  0.0158547    
0.89968      0.0143368    5.08062e-06  0.0159355    
0.90206      0.0144478    5.10566e-06  0.0160164    
0.90444      0.0145593    5.13075e-06  0.0160975    
0.90682      0.0146713    5.15588e-06  0.0161788    
0.9092       0.0147839    5.18107e-06  0.0162603    
0.91158      0.014897     5.20629e-06  0.016342     
0.91396      0.0150107    5.23157e-06  0.0164238    
0.91634      0.0151249    5.25689e-06  0.0165058    
0.91872      0.0152397    5.28225e-06  0.016588     
0.9211       0.0153551    5.30766e-06  0.0166703    
0.92348      0.015471     5.33312e-06  0.0167529    
0.92586      0.0155874    5.35862e-06  0.0168356    
0.92824      0.0157044    5.38417e-06  0.0169185    
0.93062      0.015822     5.40976e-06  0.0170015    
0.933        0.0159401    5.4354e-06   0.0170848    
0.93538      0.0160588    5.46108e-06  0.0171682    
0.93776      0.016178     5.48681e-06  0.0172518    
0.94014      0.0162978    5.51258e-06  0.0173355    
0.94252      0.0164182    5.53839e-06  0.0174194    
0.9449       0.0165391    5.56425e-06  0.0175035    
0.94728      0.0166606    5.59016e-06  0.0175878    
0.94966      0.0167826    5.61611e-06  0.0176723    
0.95204      0.0169053    5.6421e-06   0.0177569    
0.95442      0.0170284    5.66813e-06  0.0178417    
0.9568       0.0171522    5.69421e-06  0.0179266    
0.95918      0.0172765    5.72034e-06  0.0180118    
0.96156      0.0174014    5.7465e-06   0.0180971    
0.96394      0.0175269    5.77271e-06  0.0181825    
0.96632      0.0176529    5.79896e-06  0.0182682    
0.9687       0.0177795    5.82525e-06  0.018354     
0.97108      0.0179067    5.85159e-06  0.01844      
0.97346      0.0180344    5.87797e-06  0.0185261    
0.97584      0.0181628    5.90439e-06  0.0186124    
0.97822      0.0182917    5.93086e-06  0.0186989    
0.9806       0.0184212    5.95736e-06  0.0187856    
0.98298      0.0185512    5.98391e-06  0.0188724    
