# mass number (A) = 108
# number of protons (Z) = 47
#units k = 1/fm , units n_1(k) = fm^3
# k (1/fm)	tot
0.0	0.0
0.01	6.05145340509e-11
0.02	3.86716185554e-09
0.03	4.39400998858e-08
0.04	2.4602715814e-07
0.05	9.34331892346e-07
0.06	2.77469434522e-06
0.07	6.95169710236e-06
0.08	1.53746745427e-05
0.09	3.09067207962e-05
0.1	5.76100417053e-05
0.11	0.000101000395043
0.12	0.000168302925118
0.13	0.000268701432945
0.14	0.000413573037847
0.15	0.000616700283323
0.16	0.000894453017939
0.17	0.00126593283573
0.18	0.00175307348115
0.19	0.00238069139873
0.2	0.00317648152094
0.21	0.00417095442186
0.22	0.00539731209645
0.23	0.00689126083352
0.24	0.00869076091008
0.25	0.0108357141188
0.26	0.0133675914246
0.27	0.0163290043023
0.28	0.019763224513
0.29	0.0237136582035
0.3	0.0282232812424
0.31	0.0333340436149
0.32	0.0390862514718
0.33	0.0455179360438
0.34	0.0526642190885
0.35	0.0605566848184
0.36	0.0692227683582
0.37	0.0786851707055
0.38	0.0889613099082
0.39	0.100062817747
0.4	0.111995090618
0.41	0.124756902556
0.42	0.138340087472
0.43	0.152729296652
0.44	0.167901836468
0.45	0.183827590067
0.46	0.200469025526
0.47	0.217781291713
0.48	0.235712401751
0.49	0.25420350271
0.5	0.273189228879
0.51	0.292598134756
0.52	0.312353202743
0.53	0.332372419493
0.54	0.352569413898
0.55	0.372854148871
0.56	0.393133658386
0.57	0.413312820686
0.58	0.433295158134
0.59	0.452983653939
0.6	0.472281575871
0.61	0.4910932971
0.62	0.509325104505
0.63	0.526885985073
0.64	0.543688381506
0.65	0.559648908657
0.66	0.574689023163
0.67	0.588735639323
0.68	0.601721685186
0.69	0.613586593661
0.7	0.624276724448
0.71	0.633745713538
0.72	0.641954748057
0.73	0.648872765195
0.74	0.654476574946
0.75	0.658750907337
0.76	0.661688385715
0.77	0.663289428531
0.78	0.663562082803
0.79	0.662521793201
0.8	0.660191111274
0.81	0.65659934992
0.82	0.651782188629
0.83	0.645781235386
0.84	0.638643551402
0.85	0.630421145001
0.86	0.62117044106
0.87	0.610951732429
0.88	0.599828619631
0.89	0.587867444998
0.9	0.575136727159
0.91	0.561706601506
0.92	0.547648271882
0.93	0.533033478383
0.94	0.517933985668
0.95	0.502421095756
0.96	0.48656518875
0.97	0.470435294459
0.98	0.454098697351
0.99	0.437620576772
1.0	0.421063683857
1.01	0.404488056071
1.02	0.387950769857
1.03	0.37150573141
1.04	0.355203505197
1.05	0.339091179442
1.06	0.323212267484
1.07	0.307606643556
1.08	0.292310511314
1.09	0.277356403185
1.1	0.26277320842
1.11	0.248586227598
1.12	0.234817251185
1.13	0.221484659724
1.14	0.208603543131
1.15	0.196185836623
1.16	0.184240470775
1.17	0.172773533286
1.18	0.161788440086
1.19	0.151286113524
1.2	0.141265165478
1.21	0.131722083364
1.22	0.122651417158
1.23	0.114045965691
1.24	0.105896960651
1.25	0.0981942468455
1.26	0.0909264575036
1.27	0.0840811834906
1.28	0.0776451355202
1.29	0.0716042985753
1.3	0.0659440779093
1.31	0.0606494361385
1.32	0.0557050210729
1.33	0.0510952840563
1.34	0.0468045887011
1.35	0.0428173100129
1.36	0.0391179239898
1.37	0.035691087869
1.38	0.0325217112671
1.39	0.0295950185229
1.4	0.0268966026063
1.41	0.0244124710013
1.42	0.0221290840041
1.43	0.0200333859072
1.44	0.0181128295552
1.45	0.0163553947727
1.46	0.014749601166
1.47	0.0132845158023
1.48	0.0119497562603
1.49	0.010735489538
1.5	0.00963242728564
1.51	0.00863181781547
1.52	0.00772543531739
1.53	0.00690556668769
1.54	0.00616499635219
1.55	0.00549698943958
1.56	0.00489527363439
1.57	0.00435402001171
1.58	0.00386782312928
1.59	0.00343168062588
1.6	0.00304097254951
1.61	0.00269144061333
1.62	0.00237916755408
1.63	0.00210055674447
1.64	0.00185231218983
1.65	0.00163141901935
1.66	0.00143512456331
1.67	0.00126092009108
1.68	0.00110652326834
1.69	0.000969861378485
1.7	0.000849055339607
1.71	0.00074240453774
1.72	0.000648372486442
1.73	0.000565573314237
1.74	0.000492759073656
1.75	0.000428807859166
1.76	0.00037271271569
1.77	0.000323571314937
1.78	0.000280576373013
1.79	0.000243006779932
1.8	0.000210219409418
1.81	0.00018164157584
1.82	0.000156764104117
1.83	0.000135134977916
1.84	0.000116353531366
1.85	0.000100065149773
1.86	8.59564454163e-05
1.87	7.37508753111e-05
1.88	6.32047688578e-05
1.89	5.4103734512e-05
1.9	4.62594159121e-05
1.91	3.95065693279e-05
1.92	3.37004357681e-05
1.93	2.87143825975e-05
1.94	2.44377910432e-05
1.95	2.07741674937e-05
1.96	1.76394579946e-05
1.97	1.49605468145e-05
1.98	1.26739213782e-05
1.99	1.07244872355e-05
2.0	9.06451804182e-06
2.01	7.65272677944e-06
2.02	6.45344562095e-06
2.03	5.43590295216e-06
2.04	4.57358710872e-06
2.05	3.84368735279e-06
2.06	3.22660351762e-06
2.07	2.70551658324e-06
2.08	2.26601321641e-06
2.09	1.8957580165e-06
2.1	1.58420785767e-06
2.11	1.32236331059e-06
2.12	1.10255266665e-06
2.13	9.18244577964e-07
2.14	7.6388577041e-07
2.15	6.34760687731e-07
2.16	5.26870286124e-07
2.17	4.36827523032e-07
2.18	3.61767374824e-07
2.19	2.99269478045e-07
2.2	2.47291720942e-07
2.21	2.04113318395e-07
2.22	1.68286086767e-07
2.23	1.38592797624e-07
2.24	1.14011632927e-07
2.25	9.36858910385e-08
2.26	7.68982044902e-08
2.27	6.30486285085e-08
2.28	5.16360453095e-08
2.29	4.2242404435e-08
2.3	3.45193851652e-08
2.31	2.81771243721e-08
2.32	2.29747030771e-08
2.33	1.87121283178e-08
2.34	1.52235845149e-08
2.35	1.23717610543e-08
2.36	1.00430909106e-08
2.37	8.14375937309e-09
2.38	6.59636280801e-09
2.39	5.33711532681e-09
2.4	4.31351662296e-09
2.41	3.48240742198e-09
2.42	2.80835026499e-09
2.43	2.26228297085e-09
2.44	1.8204003268e-09
2.45	1.46322653864e-09
2.46	1.1748469038e-09
2.47	9.42272201539e-10
2.48	7.54913556155e-10
2.49	6.04149132275e-10
2.5	4.82967063168e-10
2.51	3.85671577564e-10
2.52	3.07641448672e-10
2.53	2.4513170292e-10
2.54	1.95111047936e-10
2.55	1.55128754433e-10
2.56	1.23205793533e-10
2.57	9.77459221865e-11
2.58	7.74631527096e-11
2.59	6.13226615747e-11
2.6	4.84927075088e-11
2.61	3.83055565723e-11
2.62	3.02257665077e-11
2.63	2.3824476299e-11
2.64	1.87585897037e-11
2.65	1.47539420226e-11
2.66	1.15917046982e-11
2.67	9.09741846324e-12
2.68	7.13215769308e-12
2.69	5.58542052118e-12
2.7	4.36941463788e-12
2.71	3.41447039887e-12
2.72	2.66536332705e-12
2.73	2.07836929353e-12
2.74	1.61890926271e-12
2.75	1.25966784749e-12
2.76	9.79092172424e-13
2.77	7.60195614325e-13
2.78	5.89605647337e-13
2.79	4.56806891261e-13
2.8	3.53540065458e-13
2.81	2.73325308201e-13
2.82	2.11084579929e-13
2.83	1.62842911203e-13
2.84	1.25492313413e-13
2.85	9.66054305043e-14
2.86	7.42886264102e-14
2.87	5.70662998314e-14
2.88	4.37898964683e-14
2.89	3.35664305751e-14
2.9	2.57023988891e-14
2.91	1.9659824092e-14
2.92	1.50218450738e-14
2.93	1.1465812163e-14
2.94	8.74227509138e-15
2.95	6.65859225412e-15
2.96	5.06615981546e-15
2.97	3.85047283563e-15
2.98	2.92339941301e-15
2.99	2.21718207262e-15
3.0	1.679785657e-15
3.01	1.27129365755e-15
3.02	9.61119935258e-16
3.03	7.25853831996e-16
3.04	5.47596715249e-16
3.05	4.12679364454e-16
3.06	3.10674146973e-16
3.07	2.33635106695e-16
3.08	1.75514053139e-16
3.09	1.31712403579e-16
3.1	9.87376117022e-17
3.11	7.39400773123e-17
3.12	5.53119151249e-17
3.13	4.13332140302e-17
3.14	3.08547132401e-17
3.15	2.30083713234e-17
3.16	1.71392744829e-17
3.17	1.27538513077e-17
3.18	9.48053374264e-18
3.19	7.03990686198e-18
3.2	5.22208439489e-18
3.21	3.86958032694e-18
3.22	2.86435612192e-18
3.23	2.11803669849e-18
3.24	1.56452831341e-18
3.25	1.15445498976e-18
3.26	8.50970231046e-19
3.27	6.26607611048e-19
3.28	4.60915219597e-19
3.29	3.38680869242e-19
3.3	2.48602025724e-19
3.31	1.82290143513e-19
3.32	1.33526166648e-19
3.33	9.77044601009e-20
3.34	7.1417945533e-20
3.35	5.21489312428e-20
3.36	3.80389663395e-20
3.37	2.77177118132e-20
3.38	2.01758366472e-20
3.39	1.46707182495e-20
3.4	1.06565586646e-20
3.41	7.73265255354e-21
3.42	5.60513476072e-21
3.43	4.05872658635e-21
3.44	2.93589040656e-21
3.45	2.12146718101e-21
3.46	1.53136725789e-21
3.47	1.10425426402e-21
3.48	7.95436702564e-22
3.49	5.72386134433e-22
3.5	4.1145244203e-22
3.51	2.95459097252e-22
3.52	2.11944617926e-22
3.53	1.51877990602e-22
3.54	1.08721349755e-22
3.55	7.77467939542e-23
3.56	5.55389826867e-23
3.57	3.96333922662e-23
3.58	2.82535211092e-23
3.59	2.01201881025e-23
3.6	1.43132985337e-23
3.61	1.01717521769e-23
3.62	7.22104865071e-24
3.63	5.12098308308e-24
3.64	3.62789818616e-24
3.65	2.56747147597e-24
3.66	1.81511881907e-24
3.67	1.2818980701e-24
3.68	9.04380179446e-25
3.69	6.373790588e-25
3.7	4.4873904815e-25
3.71	3.15601715014e-25
3.72	2.21735060894e-25
3.73	1.55624872569e-25
3.74	1.09112215327e-25
3.75	7.64218529113e-26
3.76	5.34701838901e-26
3.77	3.73728153389e-26
3.78	2.6094565685e-26
3.79	1.82009706047e-26
3.8	1.26820463818e-26
3.81	8.82743513586e-27
3.82	6.13804737955e-27
3.83	4.26360080166e-27
3.84	2.95851328973e-27
3.85	2.05079049867e-27
3.86	1.42010332241e-27
3.87	9.82357478841e-28
3.88	6.78844375501e-28
3.89	4.6862131422e-28
3.9	3.23165570458e-28
3.91	2.22627831391e-28
3.92	1.53209338068e-28
3.93	1.05327678819e-28
3.94	7.23354809972e-29
3.95	4.96263006694e-29
3.96	3.40113746024e-29
3.97	2.32856467427e-29
3.98	1.5925913256e-29
3.99	1.08810897239e-29
4.0	7.42664258613e-30
4.01	5.06366334509e-30
4.02	3.44896966154e-30
4.03	2.34674690737e-30
4.04	1.59512802104e-30
4.05	1.08312186605e-30
4.06	7.34702758983e-31
4.07	4.97850175059e-31
4.08	3.37006580701e-31
4.09	2.27892954799e-31
4.1	1.53948795248e-31
4.11	1.03890214504e-31
4.12	7.00367556443e-32
4.13	4.71661578244e-32
4.14	3.17313213629e-32
4.15	2.13254923305e-32
4.16	1.43173716829e-32
4.17	9.60242513287e-33
4.18	6.43356997973e-33
4.19	4.30602621565e-33
4.2	2.87908788282e-33
4.21	1.92303352885e-33
4.22	1.28313556819e-33
4.23	8.55287358724e-34
4.24	5.69515376085e-34
4.25	3.78837371393e-34
4.26	2.51741145035e-34
4.27	1.67112789098e-34
4.28	1.10820303405e-34
4.29	7.3414730968e-35
4.3	4.85849079491e-35
4.31	3.21198803204e-35
4.32	2.12129407776e-35
4.33	1.39953038675e-35
4.34	9.22397976144e-36
4.35	6.07307955981e-36
4.36	3.99442511319e-36
4.37	2.62454693185e-36
4.38	1.72269824913e-36
4.39	1.12958509493e-36
4.4	7.3991805954e-37
4.41	4.84176042929e-37
4.42	3.16503139141e-37
4.43	2.06684478454e-37
4.44	1.34831970442e-37
4.45	8.7868484445e-38
4.46	5.72043013461e-38
4.47	3.7203139478e-38
4.48	2.41705152343e-38
4.49	1.56872817701e-38
4.5	1.01710318767e-38
4.51	6.5877622919e-39
4.52	4.26252037595e-39
4.53	2.75518468783e-39
4.54	1.77906051359e-39
4.55	1.14758942401e-39
4.56	7.39500073575e-40
4.57	4.76042611199e-40
4.58	3.06132482676e-40
4.59	1.96665884842e-40
4.6	1.26213187068e-40
4.61	8.09164044148e-41
4.62	5.18232460493e-41
4.63	3.3156516377e-41
4.64	2.11918795035e-41
4.65	1.35308914003e-41
4.66	8.63057526176e-42
4.67	5.4993268781e-42
4.68	3.50054634388e-42
4.69	2.22596681657e-42
4.7	1.41402845152e-42
4.71	8.97334299315e-43
4.72	5.68862226924e-43
4.73	3.60260530244e-43
4.74	2.27920336883e-43
4.75	1.44047700212e-43
4.76	9.09466036256e-44
4.77	5.73619088498e-44
4.78	3.61424598279e-44
4.79	2.27493435229e-44
4.8	1.43046464362e-44
4.81	8.98550586135e-45
4.82	5.63852002768e-45
4.83	3.53463815558e-45
4.84	2.21351301501e-45
4.85	1.38476643862e-45
4.86	8.65422845479e-46
4.87	5.40303279906e-46
4.88	3.36980150403e-46
4.89	2.09956124703e-46
4.9	1.3068036343e-46
4.91	8.12549300362e-47
4.92	5.04715629314e-47
4.93	3.13185376954e-47
4.94	1.94139511213e-47
4.95	1.2022205972e-47
4.96	7.43724719376e-48
4.97	4.59619166947e-48
4.98	2.83753973092e-48
4.99	1.75002284723e-48
5.0	1.07821029829e-48
5.01	6.6362274702e-49
5.02	4.08034725734e-49
5.03	2.50628872748e-49
5.04	1.53788277152e-49
5.05	9.42700112131e-50
5.06	5.77274166043e-50
5.07	3.53141667565e-50
5.08	2.15811270548e-50
5.09	1.31752127484e-50
5.1	8.03525287146e-51
5.11	4.89553203366e-51
5.12	2.97960517583e-51
5.13	1.81165733857e-51
5.14	1.10040346198e-51
5.15	6.67707769867e-52
5.16	4.04743181941e-52
5.17	2.45093233238e-52
5.18	1.48266080188e-52
5.19	8.96006239795e-53
5.2	5.40927477418e-53
5.21	3.26231482153e-53
5.22	1.96549322135e-53
5.23	1.18297651504e-53
5.24	7.11278405138e-54
5.25	4.2723034147e-54
5.26	2.5635603954e-54
5.27	1.5366821802e-54
5.28	9.20202965927e-55
5.29	5.50480969708e-55
5.3	3.28972908032e-55
5.31	1.96398033905e-55
5.32	1.17131404451e-55
5.33	6.97860814632e-56
5.34	4.1535893531e-56
5.35	2.46966256314e-56
5.36	1.46693553784e-56
5.37	8.7044999231e-57
5.38	5.15983768308e-57
5.39	3.05553811722e-57
5.4	1.80758553341e-57
5.41	1.068241698e-57
5.42	6.30666477517e-58
5.43	3.71954272834e-58
5.44	2.19148737879e-58
5.45	1.28987624562e-58
5.46	7.58432259955e-59
5.47	4.45497492294e-59
5.48	2.61416788834e-59
5.49	1.53243289117e-59
5.5	8.97406607752e-60
5.51	5.24997096439e-60
5.52	3.06820527021e-60
5.53	1.7913144297e-60
5.54	1.04476633624e-60
5.55	6.08732488782e-61
5.56	3.54318465667e-61
5.57	2.0602556666e-61
5.58	1.19676396376e-61
5.59	6.94473974699e-62
5.6	4.02590537047e-62
5.61	2.33147785631e-62
5.62	1.34883616688e-62
5.63	7.79555991822e-63
5.64	4.50086160427e-63
5.65	2.59599748278e-63
5.66	1.49579875201e-63
5.67	8.60998483559e-64
5.68	4.95098893474e-64
5.69	2.8440806168e-64
5.7	1.63212063394e-64
5.71	9.35670726761e-65
5.72	5.35863642446e-65
5.73	3.06581561184e-65
5.74	1.75225895856e-65
5.75	1.00048617605e-65
5.76	5.70669246071e-66
5.77	3.25175970761e-66
5.78	1.85102826275e-66
5.79	1.05261198142e-66
5.8	5.97976683153e-67
5.81	3.39360193774e-67
5.82	1.92396994482e-67
5.83	1.08967360031e-67
5.84	6.1653163131e-68
5.85	3.48477795771e-68
5.86	1.96768556324e-68
5.87	1.10993399636e-68
5.88	6.25459941904e-69
5.89	3.52097356472e-69
5.9	1.98009930803e-69
5.91	1.11242860644e-69
5.92	6.24335915405e-70
5.93	3.50046313667e-70
5.94	1.96062141741e-70
5.95	1.09704147197e-70
5.96	6.13215950727e-71
5.97	3.42424601527e-71
5.98	1.91019462357e-71
5.99	1.06451416653e-71
6.0	5.92633864475e-72
#normalisation = 0.259259259259
#eerste moment n(k)k**2 = 0.239991082111
#2e moment n(k)k**2 = 0.234819667047
#3e moment n(k)k**2 = 0.241519825695
#4e moment n(k)k**2 = 0.259947015579
#sigma**2 n(k)k**2 = 0.177223947554
#kurtosis n(k)k**2 = 0.161341315049
#skewness n(k)k**2 = 1.34169630851
