# mass number (A) = 108
# number of protons (Z) = 47
#units k = 1/fm , units n_1(k) = fm^3
# k (1/fm)	tot
0.0	1.38845251801
0.01	1.3868436904
0.02	1.38202656254
0.03	1.37402912128
0.04	1.36289775175
0.05	1.3486968509
0.06	1.33150829212
0.07	1.31143074663
0.08	1.2885788687
0.09	1.26308235336
0.1	1.23508487625
0.11	1.20474292663
0.12	1.17222454564
0.13	1.1377079826
0.14	1.10138028304
0.15	1.06343582258
0.16	1.02407480128
0.17	0.983501713229
0.18	0.941923806166
0.19	0.899549545878
0.2	0.856587099752
0.21	0.813242853425
0.22	0.769719973857
0.23	0.726217031416
0.24	0.682926692652
0.25	0.640034494475
0.26	0.597717709306
0.27	0.556144309632
0.28	0.5154720391
0.29	0.47584759602
0.3	0.437405933759
0.31	0.400269681221
0.32	0.364548685186
0.33	0.330339675005
0.34	0.297726048818
0.35	0.266777779219
0.36	0.237551435128
0.37	0.210090315494
0.38	0.18442468945
0.39	0.16057213663
0.4	0.13853798052
0.41	0.118315807026
0.42	0.0998880598598
0.43	0.0832267038693
0.44	0.0682939470934
0.45	0.0550430121041
0.46	0.0434189470867
0.47	0.0333594671148
0.48	0.0247958161984
0.49	0.0176536408971
0.5	0.0118538666117
0.51	0.00731356806639
0.52	0.00394682597528
0.53	0.00166556243782
0.54	0.000380348213702
0.55	1.17568344548e-06
0.56	0.000438191993505
0.57	0.00160238760308
0.58	0.00340623618506
0.59	0.00576428257457
0.6	0.00859367619612
0.61	0.0118146481256
0.62	0.0153509306479
0.63	0.0191301188463
0.64	0.0230839744012
0.65	0.0271486723765
0.66	0.0312649923225
0.67	0.0353784555323
0.68	0.0394394107357
0.69	0.0434030709122
0.7	0.0472295042398
0.71	0.0508835824815
0.72	0.0543348903316
0.73	0.0575575994136
0.74	0.0605303107353
0.75	0.0632358694688
0.76	0.0656611559337
0.77	0.0677968566336
0.78	0.0696372191151
0.79	0.0711797943121
0.8	0.0724251698858
0.81	0.0733766978986
0.82	0.0740402199584
0.83	0.0744237927452
0.84	0.0745374166
0.85	0.0743927695983
0.86	0.0740029492813
0.87	0.073382223948
0.88	0.0725457951558
0.89	0.0715095728124
0.9	0.0702899639926
0.91	0.0689036763647
0.92	0.0673675368797
0.93	0.0656983261531
0.94	0.0639126287641
0.95	0.0620266995028
0.96	0.0600563454253
0.97	0.0580168234159
0.98	0.05592275282
0.99	0.0537880425861
1.0	0.0516258322564
1.01	0.0494484460544
1.02	0.0472673592546
1.03	0.0450931759597
1.04	0.0429356173793
1.05	0.0408035196759
1.06	0.0387048404362
1.07	0.0366466728257
1.08	0.0346352664978
1.09	0.0326760543513
1.1	0.0307736842572
1.11	0.0289320549175
1.12	0.0271543550578
1.13	0.0254431052061
1.14	0.0238002013595
1.15	0.0222269598976
1.16	0.0207241631536
1.17	0.0192921051142
1.18	0.0179306367733
1.19	0.016639210722
1.2	0.0154169246116
1.21	0.0142625631791
1.22	0.0131746385748
1.23	0.0121514287794
1.24	0.0111910139438
1.25	0.0102913105247
1.26	0.0094501031291
1.27	0.00866507401422
1.28	0.00793383022221
1.29	0.00725392835514
1.3	0.00662289702226
1.31	0.00603825701132
1.32	0.00549753925471
1.33	0.0049983006758
1.34	0.00453813801349
1.35	0.00411469973242
1.36	0.0037256961336
1.37	0.00336890778521
1.38	0.00304219239631
1.39	0.00274349025752
1.4	0.00247082837215
1.41	0.00222232339982
1.42	0.00199618353135
1.43	0.00179070941025
1.44	0.00160429421088
1.45	0.00143542297847
1.46	0.00128267133013
1.47	0.0011447036096
1.48	0.00102027058243
1.49	0.000908206751316
1.5	0.000807427364838
1.51	0.000716925186487
1.52	0.000635767084078
1.53	0.000563090493736
1.54	0.000498099806479
1.55	0.000440062719762
1.56	0.00038830659095
1.57	0.000342214824608
1.58	0.00030122332079
1.59	0.000264817007134
1.6	0.000232526473592
1.61	0.000203924724959
1.62	0.000178624063077
1.63	0.000156273107635
1.64	0.00013655396186
1.65	0.000119179527055
1.66	0.00010389096795
1.67	9.04553290264e-05
1.68	7.86633005325e-05
1.69	6.83271315939e-05
1.7	5.927868681e-05
1.71	5.13676418535e-05
1.72	4.44598129185e-05
1.73	3.84356143416e-05
1.74	3.3188638339e-05
1.75	2.86243505445e-05
1.76	2.46588948817e-05
1.77	2.12180012458e-05
1.78	1.82359894886e-05
1.79	1.56548632879e-05
1.8	1.34234876209e-05
1.81	1.14968437503e-05
1.82	9.83535584712e-06
1.83	8.4042836272e-06
1.84	7.17317564196e-06
1.85	6.11537814798e-06
1.86	5.20759476783e-06
1.87	4.42949244809e-06
1.88	3.76334951309e-06
1.89	3.19374190122e-06
1.9	2.70726395324e-06
1.91	2.29228039551e-06
1.92	1.93870642426e-06
1.93	1.63781304869e-06
1.94	1.38205508982e-06
1.95	1.16491945769e-06
1.96	9.80791542012e-07
1.97	8.24837749932e-07
1.98	6.92902409842e-07
1.99	5.8141743171e-07
2.0	4.87323273347e-07
2.01	4.07999908151e-07
2.02	3.41206624096e-07
2.03	2.85029606502e-07
2.04	2.37836369067e-07
2.05	1.98236199473e-07
2.06	1.65045878122e-07
2.07	1.37260012057e-07
2.08	1.1402540129e-07
2.09	9.46189224779e-08
2.1	7.84284755513e-08
2.11	6.49365932243e-08
2.12	5.37063618015e-08
2.13	4.43693448897e-08
2.14	3.66152399998e-08
2.15	3.01830320547e-08
2.16	2.48534379318e-08
2.17	2.0442462752e-08
2.18	1.67959120529e-08
2.19	1.37847245771e-08
2.2	1.13010084854e-08
2.21	9.25467962909e-09
2.22	7.57061435742e-09
2.23	6.18624140611e-09
2.24	5.04950792711e-09
2.25	4.11716385857e-09
2.26	3.35331676247e-09
2.27	2.72821612552e-09
2.28	2.21723205586e-09
2.29	1.79999843252e-09
2.3	1.45969497993e-09
2.31	1.18244653648e-09
2.32	9.56821047286e-10
2.33	7.7341060595e-10
2.34	6.24482262218e-10
2.35	5.03687356115e-10
2.36	4.05819882407e-10
2.37	3.26615873922e-10
2.38	2.62587054664e-10
2.39	2.1088308536e-10
2.4	1.69177632481e-10
2.41	1.35574260581e-10
2.42	1.08528797395e-10
2.43	8.67853692726e-11
2.44	6.9323766236e-11
2.45	5.53161843499e-11
2.46	4.40917193154e-11
2.47	3.51072587802e-11
2.48	2.79236499626e-11
2.49	2.21862107666e-11
2.5	1.76088125274e-11
2.51	1.39608958989e-11
2.52	1.10568924343e-11
2.53	8.7476167315e-12
2.54	6.91327065221e-12
2.55	5.45776466304e-12
2.56	4.30411394447e-12
2.57	3.39071039705e-12
2.58	2.66830757128e-12
2.59	2.09758514017e-12
2.6	1.64718389695e-12
2.61	1.29212228877e-12
2.62	1.01252194182e-12
2.63	7.92583114817e-13
2.64	6.19762056776e-13
2.65	4.84111270733e-13
2.66	3.77751055362e-13
2.67	2.94446706613e-13
2.68	2.29270656072e-13
2.69	1.78332803495e-13
2.7	1.38565534249e-13
2.71	1.07552535026e-13
2.72	8.33926457787e-14
2.73	6.45917046681e-14
2.74	4.9976731541e-14
2.75	3.86279160856e-14
2.76	2.9824779865e-14
2.77	2.30036082405e-14
2.78	1.77238323992e-14
2.79	1.36415106713e-14
2.8	1.04884343131e-14
2.81	8.05568398733e-15
2.82	6.18070392434e-15
2.83	4.73715302656e-15
2.84	3.62694555548e-15
2.85	2.77401622507e-15
2.86	2.11944174378e-15
2.87	1.61762810122e-15
2.88	1.23333420858e-15
2.89	9.39351102374e-16
2.9	7.14694397274e-16
2.91	5.43198096217e-16
2.92	4.12421891137e-16
2.93	3.12803037075e-16
2.94	2.36998809993e-16
2.95	1.79377303525e-16
2.96	1.356235493e-16
2.97	1.02435189255e-16
2.98	7.72876068031e-17
2.99	5.82528695514e-17
3.0	4.38603129223e-17
3.01	3.2989309385e-17
3.02	2.47868862582e-17
3.03	1.86045054544e-17
3.04	1.3949602906e-17
3.05	1.04484837003e-17
3.06	7.81794395721e-18
3.07	5.84359141709e-18
3.08	4.3633021136e-18
3.09	3.25461051275e-18
3.1	2.42510865038e-18
3.11	1.80514444456e-18
3.12	1.34227480299e-18
3.13	9.97056513045e-19
3.14	7.39855841158e-19
3.15	5.48432987848e-19
3.16	4.06115248222e-19
3.17	3.00416940754e-19
3.18	2.21998004132e-19
3.19	1.63879027397e-19
3.2	1.20850227148e-19
3.21	8.90269462196e-20
3.22	6.55157202761e-20
3.23	4.81636870226e-20
3.24	3.53707457421e-20
3.25	2.59489096635e-20
3.26	1.90171109073e-20
3.27	1.39226085029e-20
3.28	1.01823365591e-20
3.29	7.43918169373e-21
3.3	5.42942553986e-21
3.31	3.95852788722e-21
3.32	2.88313355956e-21
3.33	2.09771822408e-21
3.34	1.52468802588e-21
3.35	1.10704783392e-21
3.36	8.02977638102e-22
3.37	5.81824882668e-22
3.38	4.21146322191e-22
3.39	3.04526942469e-22
3.4	2.19973580744e-22
3.41	1.58733109113e-22
3.42	1.14423919583e-22
3.43	8.23983506562e-23
3.44	5.92751577295e-23
3.45	4.25970495564e-23
3.46	3.05801083626e-23
3.47	2.19306406541e-23
3.48	1.57114588539e-23
3.49	1.12443588432e-23
3.5	8.03907290727e-24
3.51	5.74156674822e-24
3.52	4.09645456513e-24
3.53	2.91970674201e-24
3.54	2.078853001e-24
3.55	1.47863804837e-24
3.56	1.05063922818e-24
3.57	7.45759981231e-25
3.58	5.28808409385e-25
3.59	3.74585993693e-25
3.6	2.65068857365e-25
3.61	1.87378584287e-25
3.62	1.32323007077e-25
3.63	9.33479995731e-26
3.64	6.5785321015e-26
3.65	4.6313477616e-26
3.66	3.25716891359e-26
3.67	2.2883779002e-26
3.68	1.60608995026e-26
3.69	1.12607345292e-26
3.7	7.8871189512e-27
3.71	5.51854966061e-27
3.72	3.85732729874e-27
3.73	2.69341376467e-27
3.74	1.87877505291e-27
3.75	1.30918703371e-27
3.76	9.11347238763e-28
3.77	6.33755030252e-28
3.78	4.4026522292e-28
3.79	3.05536318303e-28
3.8	2.11819954905e-28
3.81	1.46698794086e-28
3.82	1.01494364868e-28
3.83	7.01476459202e-29
3.84	4.84328612987e-29
3.85	3.34058923293e-29
3.86	2.30177050392e-29
3.87	1.58437151515e-29
3.88	1.08945215111e-29
3.89	7.48368488892e-30
3.9	5.13545689442e-30
3.91	3.52045675366e-30
3.92	2.41087855922e-30
3.93	1.64933211793e-30
3.94	1.12719076745e-30
3.95	7.69561475782e-31
3.96	5.24862889975e-31
3.97	3.5760627567e-31
3.98	2.43400336389e-31
3.99	1.65498498015e-31
4.0	1.12414890264e-31
4.01	7.6279983011e-32
4.02	5.1707597259e-32
4.03	3.50150870569e-32
4.04	2.36871715861e-32
4.05	1.60076803414e-32
4.06	1.08068932299e-32
4.07	7.28837377208e-33
4.08	4.91041037289e-33
4.09	3.30493082415e-33
4.1	2.22210434623e-33
4.11	1.49253344027e-33
4.12	1.00147772472e-33
4.13	6.71299270605e-34
4.14	4.49519741444e-34
4.15	3.00703948303e-34
4.16	2.00949677316e-34
4.17	1.34150832131e-34
4.18	8.94658633379e-35
4.19	5.96045378361e-35
4.2	3.96697374818e-35
4.21	2.6375300368e-35
4.22	1.75183677793e-35
4.23	1.1623798003e-35
4.24	7.70478827392e-36
4.25	5.10189661937e-36
4.26	3.37490024312e-36
4.27	2.23022467756e-36
4.28	1.47229464938e-36
4.29	9.70955530226e-37
4.3	6.39679574258e-37
4.31	4.21002052624e-37
4.32	2.7679903856e-37
4.33	1.8180407907e-37
4.34	1.19289274684e-37
4.35	7.81912126892e-38
4.36	5.1200396261e-38
4.37	3.3492499872e-38
4.38	2.18867219836e-38
4.39	1.42880459608e-38
4.4	9.31802693151e-39
4.41	6.07063518314e-39
4.42	3.95096700536e-39
4.43	2.56880897864e-39
4.44	1.66847383892e-39
4.45	1.08259550445e-39
4.46	7.01733657822e-40
4.47	4.54399357736e-40
4.48	2.93942555978e-40
4.49	1.89953203454e-40
4.5	1.22628161859e-40
4.51	7.9084850344e-41
4.52	5.09513739542e-41
4.53	3.27927673066e-41
4.54	2.10843317525e-41
4.55	1.35425753738e-41
4.56	8.6896516907e-42
4.57	5.57010271082e-42
4.58	3.56684145153e-42
4.59	2.2817297935e-42
4.6	1.4581576045e-42
4.61	9.30903376995e-43
4.62	5.93696745126e-43
4.63	3.78255012738e-43
4.64	2.40749124498e-43
4.65	1.53075180039e-43
4.66	9.72310368835e-44
4.67	6.16971593259e-44
4.68	3.91097977862e-44
4.69	2.47665868637e-44
4.7	1.56677622535e-44
4.71	9.90166084002e-45
4.72	6.25128669161e-45
4.73	3.94267627375e-45
4.74	2.48412354039e-45
4.75	1.5635640091e-45
4.76	9.83147272486e-46
4.77	6.17563992571e-46
4.78	3.87530476674e-46
4.79	2.42935119301e-46
4.8	1.52137164971e-46
4.81	9.51789583882e-47
4.82	5.94849665636e-47
4.83	3.71393394328e-47
4.84	2.31644418763e-47
4.85	1.44334533292e-47
4.86	8.98420064381e-48
4.87	5.58662401746e-48
4.88	3.47040603432e-48
4.89	2.15363456032e-48
4.9	1.33513334493e-48
4.91	8.26871862468e-49
4.92	5.1157905683e-49
4.93	3.16190126185e-49
4.94	1.95229250023e-49
4.95	1.20421084511e-49
4.96	7.42029684679e-50
4.97	4.56773765554e-50
4.98	2.80893819863e-50
4.99	1.7256169751e-50
5.0	1.0590289771e-50
5.01	6.49280756469e-51
5.02	3.97666033887e-51
5.03	2.43313257216e-51
5.04	1.4872171503e-51
5.05	9.08122349703e-52
5.06	5.53956597709e-52
5.07	3.3757364963e-52
5.08	2.05505189007e-52
5.09	1.24979426494e-52
5.1	7.59304148824e-53
5.11	4.60844657018e-53
5.12	2.79418339168e-53
5.13	1.69245391327e-53
5.14	1.02409540536e-53
5.15	6.19049865104e-54
5.16	3.7382860109e-54
5.17	2.25517953396e-54
5.18	1.35910011244e-54
5.19	8.18245325191e-55
5.2	4.92127236365e-55
5.21	2.95687578481e-55
5.22	1.77480480983e-55
5.23	1.06421647177e-55
5.24	6.37486871675e-56
5.25	3.81482332434e-56
5.26	2.28054976707e-56
5.27	1.36196718887e-56
5.28	8.12560539863e-57
5.29	4.8429147909e-57
5.3	2.88350009401e-57
5.31	1.71512263709e-57
5.32	1.01913679114e-57
5.33	6.04967295861e-58
5.34	3.58751277516e-58
5.35	2.12528501643e-58
5.36	1.25777539366e-58
5.37	7.43620273969e-59
5.38	4.39199247307e-59
5.39	2.59139856569e-59
5.4	1.52745746806e-59
5.41	8.99427883334e-60
5.42	5.29085549516e-60
5.43	3.10919391216e-60
5.44	1.82529093005e-60
5.45	1.07048055894e-60
5.46	6.27173785639e-61
5.47	3.6707893068e-61
5.48	2.1463151349e-61
5.49	1.25368956326e-61
5.5	7.31558477686e-62
5.51	4.26452457491e-62
5.52	2.48344618978e-62
5.53	1.4447791586e-62
5.54	8.39674152931e-63
5.55	4.87509099123e-63
5.56	2.82759570512e-63
5.57	1.63837973771e-63
5.58	9.48362804416e-64
5.59	5.48399646855e-64
5.6	3.16798088179e-64
5.61	1.82822940589e-64
5.62	1.05400240362e-64
5.63	6.07037200844e-65
5.64	3.49262394117e-65
5.65	2.00747979115e-65
5.66	1.15269230274e-65
5.67	6.61208579692e-66
5.68	3.78901621338e-66
5.69	2.16908895746e-66
5.7	1.24048409292e-66
5.71	7.08709071793e-67
5.72	4.04489973129e-67
5.73	2.30627199029e-67
5.74	1.31363981785e-67
5.75	7.47489537058e-68
5.76	4.24910033411e-68
5.77	2.41297002939e-68
5.78	1.36889444686e-68
5.79	7.75802379301e-69
5.8	4.39233426299e-69
5.81	2.48429295831e-69
5.82	1.40369709657e-69
5.83	7.92331973261e-70
5.84	4.46790743197e-70
5.85	2.51689081222e-70
5.86	1.41640622286e-70
5.87	7.96296005373e-71
5.88	4.47223407656e-71
5.89	2.50921463675e-71
5.9	1.40641798797e-71
5.91	7.87506858428e-72
5.92	4.40511881993e-72
5.93	2.46163850946e-72
5.94	1.37421382302e-72
5.95	7.6638633224e-73
5.96	4.26977125641e-73
5.97	2.37642933715e-73
5.98	1.32132196846e-73
5.99	7.33932091923e-74
6.0	4.07255154142e-74
#normalisation = 0.037037037037
#eerste moment n(k)k**2 = 0.0281239550506
#2e moment n(k)k**2 = 0.0260910741163
#3e moment n(k)k**2 = 0.0264162309354
#4e moment n(k)k**2 = 0.0281327938939
#sigma**2 n(k)k**2 = 0.0253001172686
#kurtosis n(k)k**2 = 36.4988026592
#skewness n(k)k**2 = 6.02831144626
