# mass number (A) = 12
# number of protons (Z) = 6
#units k = 1/fm , units n_1(k) = fm^3
# k (1/fm)	tot
0.0	0.0
0.01	0.00129898857588
0.02	0.00519161345514
0.03	0.0116648702216
0.04	0.0206971451839
0.05	0.0322583055502
0.06	0.0463098250161
0.07	0.0628049441152
0.08	0.0816888645019
0.09	0.102898976163
0.1	0.126365116382
0.11	0.152009859136
0.12	0.179748833421
0.13	0.209491068902
0.14	0.241139367107
0.15	0.274590696296
0.16	0.309736608009
0.17	0.3464636732
0.18	0.384653935779
0.19	0.42418538132
0.2	0.464932418609
0.21	0.506766371705
0.22	0.549555980093
0.23	0.593167904551
0.24	0.637467236316
0.25	0.682318007137
0.26	0.727583697856
0.27	0.773127743174
0.28	0.818814030299
0.29	0.864507389264
0.3	0.910074072755
0.31	0.955382223372
0.32	1.00030232635
0.33	1.0447076459
0.34	1.08847464332
0.35	1.13148337539
0.36	1.17361787144
0.37	1.21476648765
0.38	1.25482223765
0.39	1.29368309789
0.4	1.3312522873
0.41	1.36743852012
0.42	1.40215623144
0.43	1.43532577493
0.44	1.46687359238
0.45	1.49673235499
0.46	1.52484107625
0.47	1.55114519665
0.48	1.57559664042
0.49	1.5981538446
0.5	1.61878176122
0.51	1.63745183297
0.52	1.65414194333
0.53	1.66883634184
0.54	1.68152554578
0.55	1.69220621904
0.56	1.70088102947
0.57	1.70755848609
0.58	1.71225275716
0.59	1.71498347075
0.6	1.71577549914
0.61	1.71465872838
0.62	1.71166781477
0.63	1.70684192943
0.64	1.70022449279
0.65	1.69186290035
0.66	1.68180824118
0.67	1.67011501087
0.68	1.65684082023
0.69	1.64204610121
0.7	1.62579381156
0.71	1.60814913954
0.72	1.58917920993
0.73	1.56895279273
0.74	1.54754001577
0.75	1.52501208219
0.76	1.50144099408
0.77	1.47689928321
0.78	1.45145974971
0.79	1.42519520966
0.8	1.39817825232
0.81	1.37048100769
0.82	1.34217492506
0.83	1.31333056298
0.84	1.28401739127
0.85	1.25430360531
0.86	1.22425595298
0.87	1.19393957446
0.88	1.16341785502
0.89	1.13275229093
0.9	1.10200236842
0.91	1.07122545579
0.92	1.04047670827
0.93	1.00980898585
0.94	0.979272783458
0.95	0.94891617349
0.96	0.918784760195
0.97	0.888921645643
0.98	0.859367406803
0.99	0.830160083325
1.0	0.801335175533
1.01	0.772925652127
1.02	0.744961967085
1.03	0.717472085205
1.04	0.69048151574
1.05	0.664013353564
1.06	0.63808832728
1.07	0.612724853715
1.08	0.5879390982
1.09	0.563745040082
1.1	0.540154542887
1.11	0.517177428586
1.12	0.4948215554
1.13	0.47309289863
1.14	0.451995633973
1.15	0.431532222848
1.16	0.411703499219
1.17	0.392508757486
1.18	0.373945840988
1.19	0.356011230701
1.2	0.338700133753
1.21	0.322006571382
1.22	0.305923465983
1.23	0.290442726962
1.24	0.275555335061
1.25	0.261251424933
1.26	0.247520365692
1.27	0.234350839249
1.28	0.221730916224
1.29	0.209648129284
1.3	0.198089543753
1.31	0.18704182537
1.32	0.176491305117
1.33	0.166424041013
1.34	0.156825876827
1.35	0.147682497677
1.36	0.138979482478
1.37	0.130702353247
1.38	0.122836621266
1.39	0.115367830126
1.4	0.108281595705
1.41	0.101563643101
1.42	0.0951998406093
1.43	0.0891762307971
1.44	0.0834790587553
1.45	0.0780947976204
1.46	0.0730101714532
1.47	0.0682121755763
1.48	0.0636880944724
1.49	0.0594255173499
1.5	0.0554123514879
1.51	0.05163683347
1.52	0.0480875384231
1.53	0.044753387373
1.54	0.0416236528333
1.55	0.0386879627395
1.56	0.0359363028418
1.57	0.0333590176675
1.58	0.0309468101606
1.59	0.0286907401071
1.6	0.0265822214472
1.61	0.0246130185762
1.62	0.0227752417302
1.63	0.0210613415503
1.64	0.0194641029142
1.65	0.0179766381207
1.66	0.0165923795089
1.67	0.015305071588
1.68	0.0141087627521
1.69	0.0129977966468
1.7	0.011966803254
1.71	0.0110106897529
1.72	0.0101246312149
1.73	0.00930406118335
1.74	0.00854466218614
1.75	0.00784235622562
1.76	0.00719329528529
1.77	0.0065938518904
1.78	0.00604060975524
1.79	0.00553035454678
1.8	0.00506006479127
1.81	0.00462690294701
1.82	0.00422820666384
1.83	0.00386148024718
1.84	0.00352438634168
1.85	0.00321473784733
1.86	0.00293049007848
1.87	0.00266973317419
1.88	0.00243068476644
1.89	0.00221168291076
1.9	0.00201117928246
1.91	0.00182773263987
1.92	0.00166000255492
1.93	0.00150674340977
1.94	0.00136679865758
1.95	0.00123909534415
1.96	0.00112263888638
1.97	0.00101650810283
1.98	0.000919850490937
1.99	0.000831877744782
2.0	0.000751861507022
2.01	0.000679129347987
2.02	0.000613060964769
2.03	0.000553084592802
2.04	0.000498673622258
2.05	0.000449343411463
2.06	0.000404648289448
2.07	0.000364178739718
2.08	0.000327558757336
2.09	0.000294443371486
2.1	0.000264516325741
2.11	0.000237487908383
2.12	0.000213092925291
2.13	0.00019108880804
2.14	0.000171253850057
2.15	0.000153385563889
2.16	0.000137299152831
2.17	0.000122826090403
2.18	0.00010981280139
2.19	9.81194384019e-05
2.2	8.76187481434e-05
2.21	7.81950218439e-05
2.22	6.97431245297e-05
2.23	6.21675980717e-05
2.24	5.53818331825e-05
2.25	4.93073057765e-05
2.26	4.38728733414e-05
2.27	3.90141271994e-05
2.28	3.46727967611e-05
2.29	3.07962020924e-05
2.3	2.73367513264e-05
2.31	2.4251479656e-05
2.32	2.15016268388e-05
2.33	1.90522503367e-05
2.34	1.68718713906e-05
2.35	1.49321515052e-05
2.36	1.32075969858e-05
2.37	1.16752893214e-05
2.38	1.03146393628e-05
2.39	9.10716338326e-06
2.4	8.03627924279e-06
2.41	7.08712100697e-06
2.42	6.24637048678e-06
2.43	5.50210428111e-06
2.44	4.84365500828e-06
2.45	4.26148551233e-06
2.46	3.74707492287e-06
2.47	3.29281553418e-06
2.48	2.89191955076e-06
2.49	2.53833482224e-06
2.5	2.22666876115e-06
2.51	1.95211970308e-06
2.52	1.71041502954e-06
2.53	1.4977554308e-06
2.54	1.31076473822e-06
2.55	1.14644480464e-06
2.56	1.00213495584e-06
2.57	8.75475578078e-07
2.58	7.64375444584e-07
2.59	6.66982419514e-07
2.6	5.81657209978e-07
2.61	5.06949866817e-07
2.62	4.41578762035e-07
2.63	3.8441179597e-07
2.64	3.34449610196e-07
2.65	2.90810603269e-07
2.66	2.52717565573e-07
2.67	2.19485767136e-07
2.68	1.90512348262e-07
2.69	1.6526687741e-07
2.7	1.43282954065e-07
2.71	1.24150746357e-07
2.72	1.07510364227e-07
2.73	9.30459788127e-08
2.74	8.04806078239e-08
2.75	6.95714947896e-08
2.76	6.01060174972e-08
2.77	5.18980676052e-08
2.78	4.47848494609e-08
2.79	3.8624051597e-08
2.8	3.32913492965e-08
2.81	2.86782010372e-08
2.82	2.46899056078e-08
2.83	2.12438902667e-08
2.84	1.82682035297e-08
2.85	1.57001890559e-08
2.86	1.34853196888e-08
2.87	1.15761730263e-08
2.88	9.93153196762e-09
2.89	8.51559553842e-09
2.9	7.29728695434e-09
2.91	6.24964736093e-09
2.92	5.34930500851e-09
2.93	4.57601079588e-09
2.94	3.91223216438e-09
2.95	3.34279825523e-09
2.96	2.8545900714e-09
2.97	2.43627012116e-09
2.98	2.07804667303e-09
2.99	1.77146833118e-09
3.0	1.50924515323e-09
3.01	1.28509298659e-09
3.02	1.09359810137e-09
3.03	9.30099552992e-10
3.04	7.90587021262e-10
3.05	6.71612149668e-10
3.06	5.70211652507e-10
3.07	4.83840672744e-10
3.08	4.10315062716e-10
3.09	3.47761426439e-10
3.1	2.94573908684e-10
3.11	2.49376844576e-10
3.12	2.10992496384e-10
3.13	1.7841320314e-10
3.14	1.50777355457e-10
3.15	1.27348683922e-10
3.16	1.0749841584e-10
3.17	9.06899132655e-11
3.18	7.64654559904e-11
3.19	6.44348774839e-11
3.2	5.42658004427e-11
3.21	4.56752522981e-11
3.22	3.84224703822e-11
3.23	3.23027320001e-11
3.24	2.71420668711e-11
3.25	2.27927287114e-11
3.26	1.91293194982e-11
3.27	1.60454745064e-11
3.28	1.34510288246e-11
3.29	1.12695969958e-11
3.3	9.43650688793e-12
3.31	7.89703709753e-12
3.32	6.60491426692e-12
3.33	5.52103281788e-12
3.34	4.61236488555e-12
3.35	3.85103279502e-12
3.36	3.21352035226e-12
3.37	2.68000260612e-12
3.38	2.23377665238e-12
3.39	1.86077855789e-12
3.4	1.54917363764e-12
3.41	1.28900916955e-12
3.42	1.07192022037e-12
3.43	8.90880619864e-13
3.44	7.3999228882e-13
3.45	6.14307127651e-13
3.46	5.09676529168e-13
3.47	4.22624312182e-13
3.48	3.50239499191e-13
3.49	2.90085896597e-13
3.5	2.40125892834e-13
3.51	1.98656279487e-13
3.52	1.64254232722e-13
3.53	1.35731875322e-13
3.54	1.12098080535e-13
3.55	9.252638385e-14
3.56	7.63280430245e-14
3.57	6.2929434642e-14
3.58	5.1853101118e-14
3.59	4.27018686182e-14
3.6	3.51455466974e-14
3.61	2.89097969901e-14
3.62	2.37668230779e-14
3.63	1.95275884617e-14
3.64	1.60353159079e-14
3.65	1.31600605852e-14
3.66	1.07941824588e-14
3.67	8.84857129569e-15
3.68	7.24950114544e-15
3.69	5.93601096976e-15
3.7	4.85772477546e-15
3.71	3.97303863806e-15
3.72	3.24761380578e-15
3.73	2.65312498929e-15
3.74	2.16622127035e-15
3.75	1.76766404986e-15
3.76	1.4416123162e-15
3.77	1.17503042581e-15
3.78	9.57197700739e-16
3.79	7.79302590387e-16
3.8	6.34107023479e-16
3.81	5.15668982817e-16
3.82	4.19113345227e-16
3.83	3.40442706854e-16
3.84	2.76381313474e-16
3.85	2.24246382086e-16
3.86	1.81842071956e-16
3.87	1.47372172362e-16
3.88	1.19368247414e-16
3.89	9.66305380145e-17
3.9	7.81793859802e-17
3.91	6.32153314923e-17
3.92	5.10863553842e-17
3.93	4.12610034723e-17
3.94	3.3306350285e-17
3.95	2.6869941871e-17
3.96	2.16650082695e-17
3.97	1.74583610217e-17
3.98	1.40604942601e-17
3.99	1.13174931169e-17
4.0	9.1044235245e-18
4.01	7.3199355018e-18
4.02	5.88185985348e-18
4.03	4.72361761188e-18
4.04	3.79129399837e-18
4.05	3.04125537447e-18
4.06	2.43820960371e-18
4.07	1.95362828224e-18
4.08	1.56446410845e-18
4.09	1.25210881802e-18
4.1	1.00154708028e-18
4.11	8.00669923372e-19
4.12	6.39717948752e-19
4.13	5.10830074267e-19
4.14	4.07678027136e-19
4.15	3.25170472022e-19
4.16	2.59213652991e-19
4.17	2.06517872258e-19
4.18	1.64441122931e-19
4.19	1.30862819188e-19
4.2	1.04081892533e-19
4.21	8.27346020655e-20
4.22	6.57282850865e-20
4.23	5.21879887762e-20
4.24	4.14135044565e-20
4.25	3.28447976654e-20
4.26	2.60342102509e-20
4.27	2.06241213915e-20
4.28	1.63290063642e-20
4.29	1.29210359948e-20
4.3	1.02185250135e-20
4.31	8.07667129611e-21
4.32	6.38013614326e-21
4.33	5.03710318098e-21
4.34	3.97452408419e-21
4.35	3.13431632727e-21
4.36	2.47032415158e-21
4.37	1.94589101184e-21
4.38	1.5319216326e-21
4.39	1.20533585564e-21
4.4	9.47835811605e-22
4.41	7.44923511738e-22
4.42	5.85118462616e-22
4.43	4.59334952121e-22
4.44	3.60386717803e-22
4.45	2.82593176489e-22
4.46	2.21466578967e-22
4.47	1.73463607446e-22
4.48	1.35788259396e-22
4.49	1.06235522581e-22
4.5	8.30674741333e-23
4.51	6.49151372208e-23
4.52	5.07007870673e-23
4.53	3.95764822328e-23
4.54	3.08754617984e-23
4.55	2.40737384743e-23
4.56	1.8759766847e-23
4.57	1.46105032481e-23
4.58	1.13725216537e-23
4.59	8.84712669184e-24
4.6	6.87862470725e-24
4.61	5.34508845723e-24
4.62	4.15108961245e-24
4.63	3.2219831815e-24
4.64	2.49941513335e-24
4.65	1.93779354171e-24
4.66	1.50151824526e-24
4.67	1.16280727736e-24
4.68	8.99992526934e-25
4.69	6.96184127295e-25
4.7	5.38224422067e-25
4.71	4.15869210949e-25
4.72	3.21147273211e-25
4.73	2.47859647736e-25
4.74	1.91188406121e-25
4.75	1.47391157246e-25
4.76	1.13562638083e-25
4.77	8.74487690698e-26
4.78	6.73017146332e-26
4.79	5.17669732326e-26
4.8	3.9795470979e-26
4.81	3.05751624095e-26
4.82	2.34778411339e-26
4.83	1.80178026364e-26
4.84	1.3819737237e-26
4.85	1.0593806973e-26
4.86	8.11631044768e-27
4.87	6.2146916498e-27
4.88	4.75592366874e-27
4.89	3.63751285018e-27
4.9	2.78053638139e-27
4.91	2.12425685069e-27
4.92	1.62195905952e-27
4.93	1.23773359089e-27
4.94	9.4399329781e-28
4.95	7.19556834661e-28
4.96	5.48170635031e-28
4.97	4.17369701249e-28
4.98	3.17600056493e-28
4.99	2.41543157277e-28
5.0	1.83596093355e-28
5.01	1.39471886785e-28
5.02	1.05892322452e-28
5.03	8.03520278623e-29
5.04	6.09373823188e-29
5.05	4.61875945949e-29
5.06	3.4988192536e-29
5.07	2.64894106127e-29
5.08	2.00436920446e-29
5.09	1.51578567859e-29
5.1	1.14565153776e-29
5.11	8.65410107936e-30
5.12	6.53350271124e-30
5.13	4.92974995897e-30
5.14	3.71756375725e-30
5.15	2.80186166268e-30
5.16	2.11052108322e-30
5.17	1.58886667532e-30
5.18	1.1954735882e-30
5.19	8.98974339681e-31
5.2	6.756307356e-31
5.21	5.07488617908e-31
5.22	3.80976363405e-31
5.23	2.85841042793e-31
5.24	2.14341361621e-31
5.25	1.60635761779e-31
5.26	1.20318762173e-31
5.27	9.0069831777e-32
5.28	6.7387638594e-32
5.29	5.03890332749e-32
5.3	3.76570875851e-32
5.31	2.81262838884e-32
5.32	2.09958238483e-32
5.33	1.56642077195e-32
5.34	1.16798941462e-32
5.35	8.70410961418e-33
5.36	6.48283218185e-33
5.37	4.82569868645e-33
5.38	3.590133753e-33
5.39	2.66941485535e-33
5.4	1.98370251973e-33
5.41	1.4733029411e-33
5.42	1.093610362e-33
5.43	8.11312632279e-34
5.44	6.01546121911e-34
5.45	4.4576370768e-34
5.46	3.3013804568e-34
5.47	2.44366432748e-34
5.48	1.80776775927e-34
5.49	1.33659197576e-34
5.5	9.87666214791e-35
5.51	7.29418363689e-35
5.52	5.38391685303e-35
5.53	3.97168834604e-35
5.54	2.92824329943e-35
5.55	2.15771629483e-35
5.56	1.58904692478e-35
5.57	1.16959178944e-35
5.58	8.60373682417e-36
5.59	6.32550425254e-36
5.6	4.6479176471e-36
5.61	3.41331952356e-36
5.62	2.50524799283e-36
5.63	1.83772180508e-36
5.64	1.34729932189e-36
5.65	9.87196713774e-37
5.66	7.22933928562e-37
5.67	5.29113472819e-37
5.68	3.87038661064e-37
5.69	2.82953586056e-37
5.7	2.06743274694e-37
5.71	1.50974264903e-37
5.72	1.10186860716e-37
5.73	8.03733479144e-38
5.74	5.85935323078e-38
5.75	4.26916246784e-38
5.76	3.10878777633e-38
5.77	2.26253271786e-38
5.78	1.64571288445e-38
5.79	1.19637874334e-38
5.8	8.69238059383e-39
5.81	6.31195965909e-39
5.82	4.58084017972e-39
5.83	3.32262645571e-39
5.84	2.40864812595e-39
5.85	1.74510141682e-39
5.86	1.26364028329e-39
5.87	9.14495855298e-40
5.88	6.6144771049e-40
5.89	4.7815070333e-40
5.9	3.45453497647e-40
5.91	2.49442190573e-40
5.92	1.80013783598e-40
5.93	1.29836604043e-40
5.94	9.3593153995e-41
5.95	6.74289774522e-41
5.96	4.85517209913e-41
5.97	3.49396263391e-41
5.98	2.51297092587e-41
5.99	1.8063930786e-41
6.0	1.29775482976e-41
#normalisation = 0.666666666667
#eerste moment n(k)k**2 = 0.600921551236
#2e moment n(k)k**2 = 0.598245217183
#3e moment n(k)k**2 = 0.647097199072
#4e moment n(k)k**2 = 0.751584413753
#sigma**2 n(k)k**2 = 0.237138506444
#kurtosis n(k)k**2 = -1.20121987395
#skewness n(k)k**2 = 0.0224757419999
