# mass number (A) = 40
# number of protons (Z) = 20
#units k = 1/fm , units n_1(k) = fm^3
# k (1/fm)	tot
0.0	0.0
0.01	0.00123936827766
0.02	0.00495187970901
0.03	0.0111207856357
0.04	0.0197182765613
0.05	0.0307056387793
0.06	0.0440334721133
0.07	0.0596419672467
0.08	0.0774612407033
0.09	0.0974117251481
0.1	0.119404612295
0.11	0.143342345358
0.12	0.169119157652
0.13	0.196621653644
0.14	0.225729428494
0.15	0.256315721884
0.16	0.288248101721
0.17	0.321389173142
0.18	0.355597308125
0.19	0.390727390899
0.2	0.426631574291
0.21	0.463160042165
0.22	0.50016177307
0.23	0.537485300327
0.24	0.574979463845
0.25	0.612494149089
0.26	0.649881008792
0.27	0.686994163195
0.28	0.723690874803
0.29	0.759832193919
0.3	0.795283571466
0.31	0.829915435914
0.32	0.863603731437
0.33	0.896230414755
0.34	0.927683908448
0.35	0.957859508887
0.36	0.986659747284
0.37	1.0139947027
0.38	1.03978226626
0.39	1.06394835609
0.4	1.08642708296
0.41	1.10716086687
0.42	1.12610050512
0.43	1.14320519289
0.44	1.1584424974
0.45	1.1717882873
0.46	1.18322661887
0.47	1.19274958118
0.48	1.20035710238
0.49	1.20605671945
0.5	1.20986331419
0.51	1.21179881791
0.52	1.21189188795
0.53	1.21017755878
0.54	1.2066968708
0.55	1.20149647977
0.56	1.19462825017
0.57	1.18614883533
0.58	1.17611924751
0.59	1.16460442088
0.6	1.15167277035
0.61	1.13739574907
0.62	1.12184740729
0.63	1.10510395532
0.64	1.08724333289
0.65	1.06834478732
0.66	1.04848846268
0.67	1.02775500189
0.68	1.00622516355
0.69	0.983979455237
0.7	0.961097784527
0.71	0.937659129226
0.72	0.913741227701
0.73	0.889420290278
0.74	0.864770732376
0.75	0.839864929912
0.76	0.814772997303
0.77	0.789562588241
0.78	0.764298719268
0.79	0.739043615988
0.8	0.71385658165
0.81	0.688793887672
0.82	0.663908685574
0.83	0.639250939665
0.84	0.61486737972
0.85	0.590801472813
0.86	0.567093413382
0.87	0.54378013053
0.88	0.520895311516
0.89	0.498469440352
0.9	0.476529850372
0.91	0.455100789631
0.92	0.434203497966
0.93	0.413856294551
0.94	0.394074674785
0.95	0.374871415369
0.96	0.356256686422
0.97	0.338238169551
0.98	0.320821180803
0.99	0.304008797454
1.0	0.28780198766
1.01	0.272199742035
1.02	0.257199206246
1.03	0.242795813825
1.04	0.228983418385
1.05	0.215754424552
1.06	0.203099916944
1.07	0.191009786586
1.08	0.17947285424
1.09	0.168476990165
1.1	0.158009229883
1.11	0.148055885583
1.12	0.138602652868
1.13	0.129634712575
1.14	0.12113682748
1.15	0.113093433714
1.16	0.105488726801
1.17	0.0983067422336
1.18	0.0915314305733
1.19	0.0851467270857
1.2	0.0791366159477
1.21	0.0734851891124
1.22	0.0681766999321
1.23	0.0631956116684
1.24	0.0585266410426
1.25	0.0541547969946
1.26	0.0500654148374
1.27	0.0462441860063
1.28	0.0426771836135
1.29	0.0393508840273
1.3	0.0362521846994
1.31	0.0333684184707
1.32	0.0306873645858
1.33	0.0281972566465
1.34	0.0258867877358
1.35	0.0237451129368
1.36	0.0217618494699
1.37	0.0199270746657
1.38	0.0182313219826
1.39	0.016665575273
1.4	0.0152212614932
1.41	0.0138902420422
1.42	0.0126648029075
1.43	0.0115376437851
1.44	0.0105018663306
1.45	0.0095509616907
1.46	0.00867879745157
1.47	0.00787960413276
1.48	0.00714796134406
1.49	0.00647878371392
1.5	0.00586730668814
1.51	0.00530907228833
1.52	0.00479991491092
1.53	0.00433594723889
1.54	0.0039135463302
1.55	0.00352933993923
1.56	0.00318019312015
1.57	0.00286319515438
1.58	0.00257564683757
1.59	0.00231504815598
1.6	0.00207908637606
1.61	0.00186562456635
1.62	0.0016726905658
1.63	0.0014984664085
1.64	0.00134127821094
1.65	0.00119958652428
1.66	0.00107197715113
1.67	0.00095715242359
1.68	0.000853922936716
1.69	0.000761199729606
1.7	0.00067798690445
1.71	0.000603374672296
1.72	0.000536532813039
1.73	0.000476704536072
1.74	0.0004232007272
1.75	0.000375394566763
1.76	0.000332716503481
1.77	0.000294649568196
1.78	0.000260725011557
1.79	0.000230518249622
1.8	0.000203645101494
1.81	0.000179758303209
1.82	0.000158544282433
1.83	0.000139720178791
1.84	0.000123031095121
1.85	0.000108247565306
1.86	9.51632249246e-05
1.87	8.35926713812e-05
1.88	7.33695008009e-05
1.89	6.4344509484e-05
1.9	5.63840483112e-05
1.91	4.93685190568e-05
1.92	4.31910021456e-05
1.93	3.77560059639e-05
1.94	3.29783283926e-05
1.95	2.87820217903e-05
1.96	2.50994531858e-05
1.97	2.18704519692e-05
1.98	1.90415378697e-05
1.99	1.6565222498e-05
2.0	1.43993781961e-05
2.01	1.2506668379e-05
2.02	1.08540339819e-05
2.03	9.41223102135e-06
2.04	8.15541466439e-06
2.05	7.0607655549e-06
2.06	6.10815448475e-06
2.07	5.27984181401e-06
2.08	4.56020834025e-06
2.09	3.93551459431e-06
2.1	3.39368579739e-06
2.11	2.92411995445e-06
2.12	2.51751678112e-06
2.13	2.16572536766e-06
2.14	1.86160867376e-06
2.15	1.59892312358e-06
2.16	1.37221173229e-06
2.17	1.17670934365e-06
2.18	1.00825869483e-06
2.19	8.63236149224e-07
2.2	7.38486052031e-07
2.21	6.31262767852e-07
2.22	5.39179553975e-07
2.23	4.60163509618e-07
2.24	3.92415919639e-07
2.25	3.34377382323e-07
2.26	2.84697175181e-07
2.27	2.42206370906e-07
2.28	2.05894268107e-07
2.29	1.74887748824e-07
2.3	1.48433217402e-07
2.31	1.25880813633e-07
2.32	1.0667062745e-07
2.33	9.03206732781e-08
2.34	7.64164097343e-08
2.35	6.46016150385e-08
2.36	5.45704505194e-08
2.37	4.60605642284e-08
2.38	3.88471041614e-08
2.39	3.27375261388e-08
2.4	2.75670952007e-08
2.41	2.31949916282e-08
2.42	1.95009435546e-08
2.43	1.63823177343e-08
2.44	1.37516085269e-08
2.45	1.15342726451e-08
2.46	9.66686382369e-09
2.47	8.09542738166e-09
2.48	6.77411976848e-09
2.49	5.66402267978e-09
2.5	4.73212527301e-09
2.51	3.95045147051e-09
2.52	3.29531236494e-09
2.53	2.74666638879e-09
2.54	2.28757222176e-09
2.55	1.90372142736e-09
2.56	1.58303956805e-09
2.57	1.31534607896e-09
2.58	1.09206451114e-09
2.59	9.05975911408e-10
2.6	7.51009109039e-10
2.61	6.22062549011e-10
2.62	5.14853064237e-10
2.63	4.25787630322e-10
2.64	3.51854708817e-10
2.65	2.90532270356e-10
2.66	2.39710007526e-10
2.67	1.97623607705e-10
2.68	1.62799266135e-10
2.69	1.34006885909e-10
2.7	1.10220640296e-10
2.71	9.05857689574e-11
2.72	7.43906476715e-11
2.73	6.10433149785e-11
2.74	5.00517621271e-11
2.75	4.10073977005e-11
2.76	3.35711879028e-11
2.77	2.74620498451e-11
2.78	2.24471401964e-11
2.79	1.83337368693e-11
2.8	1.49624584122e-11
2.81	1.22016056768e-11
2.82	9.94244416382e-12
2.83	8.09527412024e-12
2.84	6.58615972081e-12
2.85	5.35420918441e-12
2.86	4.34931500476e-12
2.87	3.53027809986e-12
2.88	2.86325201355e-12
2.89	2.32045368732e-12
2.9	1.87909605796e-12
2.91	1.52050508132e-12
2.92	1.22938995117e-12
2.93	9.93240456709e-13
2.94	8.01829760256e-13
2.95	6.46804508634e-13
2.96	5.21347230576e-13
2.97	4.19898511954e-13
2.98	3.37928561232e-13
2.99	2.71749546455e-13
3.0	2.18361559291e-13
3.01	1.75326289112e-13
3.02	1.40663511116e-13
3.03	1.12766341024e-13
3.04	9.03319133563e-14
3.05	7.23047247068e-14
3.06	5.78303676565e-14
3.07	4.62177819687e-14
3.08	3.69084813281e-14
3.09	2.94514879854e-14
3.1	2.34829339519e-14
3.11	1.8709474054e-14
3.12	1.48948099852e-14
3.13	1.184875115e-14
3.14	9.41834228319e-15
3.15	7.48067345067e-15
3.16	5.93705834594e-15
3.17	4.70832447037e-15
3.18	3.73100605544e-15
3.19	2.95426929143e-15
3.2	2.33743109287e-15
3.21	1.84795851328e-15
3.22	1.45985705754e-15
3.23	1.15237338444e-15
3.24	9.08951948518e-16
3.25	7.16396577871e-16
3.26	5.64197299226e-16
3.27	4.43990293983e-16
3.28	3.49125019005e-16
3.29	2.7431751689e-16
3.3	2.15372986771e-16
3.31	1.68963964361e-16
3.32	1.32453112642e-16
3.33	1.03751769484e-16
3.34	8.12071313025e-17
3.35	6.3512350483e-17
3.36	4.96349522369e-17
3.37	3.87598853113e-17
3.38	3.02442525695e-17
3.39	2.3581355857e-17
3.4	1.8372162406e-17
3.41	1.43026796606e-17
3.42	1.11260299316e-17
3.43	8.64826036385e-18
3.44	6.7171191358e-18
3.45	5.21318518169e-18
3.46	4.04286371583e-18
3.47	3.13285966737e-18
3.48	2.42582079113e-18
3.49	1.87690572935e-18
3.5	1.45108288846e-18
3.51	1.1210062581e-18
3.52	8.65346316022e-19
3.53	6.67479599922e-19
3.54	5.14460718877e-19
3.55	3.9621659217e-19
3.56	3.04915393577e-19
3.57	2.34472726994e-19
3.58	1.8016550756e-19
3.59	1.38330304645e-19
3.6	1.06127864084e-19
3.61	8.13594413813e-20
3.62	6.23236633901e-20
3.63	4.77050665759e-20
3.64	3.64873727579e-20
3.65	2.78860672955e-20
3.66	2.1296026323e-20
3.67	1.62508671743e-20
3.68	1.2391423597e-20
3.69	9.44131740705e-21
3.7	7.18804455117e-21
3.71	5.46834269174e-21
3.72	4.15688032719e-21
3.73	3.15752057773e-21
3.74	2.39657905961e-21
3.75	1.81762491571e-21
3.76	1.37747505754e-21
3.77	1.0431102721e-21
3.78	7.89302967094e-22
3.79	5.96793817749e-22
3.8	4.50891444518e-22
3.81	3.40397847275e-22
3.82	2.56784483409e-22
3.83	1.93561038412e-22
3.84	1.4579221496e-22
3.85	1.09728130584e-22
3.86	8.25218418235e-23
3.87	6.20136310563e-23
3.88	4.65664098469e-23
3.89	3.4940227435e-23
3.9	2.61966709405e-23
3.91	1.96260959419e-23
3.92	1.46922799438e-23
3.93	1.09903611877e-23
3.94	8.21489956487e-24
3.95	6.13564327143e-24
3.96	4.57915689685e-24
3.97	3.41490442793e-24
3.98	2.54471540088e-24
3.99	1.89481819035e-24
4.0	1.40981965988e-24
4.01	1.04815931185e-24
4.02	7.78679561731e-25
4.03	5.78040177552e-25
4.04	4.28770673682e-25
4.05	3.17804429225e-25
4.06	2.35376265627e-25
4.07	1.74194030273e-25
4.08	1.28816581269e-25
4.09	9.51871225816e-26
4.1	7.02833707737e-26
4.11	5.18555140878e-26
4.12	3.82300891105e-26
4.13	2.81633106377e-26
4.14	2.07314727027e-26
4.15	1.52491164601e-26
4.16	1.12079790601e-26
4.17	8.23148265537e-27
4.18	6.0408350185e-27
4.19	4.42979937031e-27
4.2	3.24593140465e-27
4.21	2.37663692578e-27
4.22	1.73881984673e-27
4.23	1.27120211038e-27
4.24	9.2863043561e-28
4.25	6.7785926469e-28
4.26	4.94429637962e-28
4.27	3.60361026833e-28
4.28	2.62445733843e-28
4.29	1.90989558014e-28
4.3	1.38882701695e-28
4.31	1.00914863531e-28
4.32	7.32707417903e-29
4.33	5.31587219733e-29
4.34	3.85378061034e-29
4.35	2.79169505955e-29
4.36	2.02077297145e-29
4.37	1.46162393954e-29
4.38	1.05638534679e-29
4.39	7.62917729644e-30
4.4	5.50556235774e-30
4.41	3.97003489171e-30
4.42	2.86059016543e-30
4.43	2.05961316298e-30
4.44	1.48178227778e-30
4.45	1.06525081165e-30
4.46	7.65223169206e-31
4.47	5.49279167166e-31
4.48	3.93973438671e-31
4.49	2.8236416339e-31
4.5	2.02218576146e-31
4.51	1.4471094383e-31
4.52	1.03478608417e-31
4.53	7.39381666664e-32
4.54	5.2790489528e-32
4.55	3.76627157539e-32
4.56	2.68495200174e-32
4.57	1.91262746933e-32
4.58	1.36142348625e-32
4.59	9.68333804318e-33
4.6	6.88217911352e-33
4.61	4.88760263625e-33
4.62	3.46844544926e-33
4.63	2.45947789187e-33
4.64	1.74268973007e-33
4.65	1.23386126988e-33
4.66	8.72934627753e-34
4.67	6.17115219087e-34
4.68	4.35933210246e-34
4.69	3.07710867539e-34
4.7	2.17037566234e-34
4.71	1.52966454592e-34
4.72	1.07727534762e-34
4.73	7.58099987448e-35
4.74	5.33083844367e-35
4.75	3.74570725855e-35
4.76	2.62991335478e-35
4.77	1.84509342291e-35
4.78	1.29349456895e-35
4.79	9.06108496651e-36
4.8	6.34256835549e-36
4.81	4.43628548368e-36
4.82	3.10058190003e-36
4.83	2.16539104365e-36
4.84	1.51111977031e-36
4.85	1.05373371815e-36
4.86	7.34230329145e-37
4.87	5.11214580141e-37
4.88	3.55667045165e-37
4.89	2.47259804062e-37
4.9	1.71764309641e-37
4.91	1.19228989726e-37
4.92	8.26990161602e-38
4.93	5.73176504477e-38
4.94	3.96959306775e-38
4.95	2.74709187334e-38
4.96	1.89963420477e-38
4.97	1.31261206856e-38
4.98	9.0630094878e-39
4.99	6.25285157643e-39
5.0	4.310756215e-39
5.01	2.96960357711e-39
5.02	2.04415196095e-39
5.03	1.40603968041e-39
5.04	9.66388358518e-40
5.05	6.63705671161e-40
5.06	4.55479785656e-40
5.07	3.12343476736e-40
5.08	2.14025509538e-40
5.09	1.4654412744e-40
5.1	1.00263091728e-40
5.11	6.85462297233e-41
5.12	4.68269499726e-41
5.13	3.19652424781e-41
5.14	2.18036890882e-41
5.15	1.48611294162e-41
5.16	1.01214683856e-41
5.17	6.88818992819e-42
5.18	4.6842126251e-42
5.19	3.18300994872e-42
5.2	2.16127143314e-42
5.21	1.46639362546e-42
5.22	9.94172534632e-43
5.23	6.73508244377e-43
5.24	4.55925666903e-43
5.25	3.08400554632e-43
5.26	2.08452089811e-43
5.27	1.40788558753e-43
5.28	9.50163823904e-44
5.29	6.40766280958e-44
5.3	4.31788280321e-44
5.31	2.90744899662e-44
5.32	1.95624581084e-44
5.33	1.31523943488e-44
5.34	8.83601221099e-45
5.35	5.93168244529e-45
5.36	3.97896015082e-45
5.37	2.66705154523e-45
5.38	1.78633687211e-45
5.39	1.19554371641e-45
5.4	7.99535434562e-46
5.41	5.34293804213e-46
5.42	3.56773622816e-46
5.43	2.380540245e-46
5.44	1.5871885349e-46
5.45	1.05743022121e-46
5.46	7.03955393401e-47
5.47	4.68283435016e-47
5.48	3.11273890042e-47
5.49	2.06750631419e-47
5.5	1.37221214916e-47
5.51	9.10051459081e-48
5.52	6.03088331026e-48
5.53	3.99361501151e-48
5.54	2.64254123221e-48
5.55	1.74722029111e-48
5.56	1.15436694684e-48
5.57	7.62097325777e-49
5.58	5.02744512172e-49
5.59	3.31401596289e-49
5.6	2.18289185137e-49
5.61	1.43674673742e-49
5.62	9.44927755269e-50
5.63	6.20993976531e-50
5.64	4.07799393327e-50
5.65	2.67593881087e-50
5.66	1.75459224942e-50
5.67	1.14959977319e-50
5.68	7.52640486582e-51
5.69	4.92378337117e-51
5.7	3.21870193609e-51
5.71	2.10248573467e-51
5.72	1.37232140162e-51
5.73	8.95053728543e-52
5.74	5.83328071266e-52
5.75	3.7988063588e-52
5.76	2.47201985796e-52
5.77	1.60741228063e-52
5.78	1.04441510907e-52
5.79	6.78093460269e-53
5.8	4.3992285078e-53
5.81	2.85189840316e-53
5.82	1.84740515831e-53
5.83	1.19580629555e-53
5.84	7.73446199144e-54
5.85	4.99884859332e-54
5.86	3.22834889773e-54
5.87	2.08334676197e-54
5.88	1.34342456414e-54
5.89	8.65636662192e-55
5.9	5.57350815399e-55
5.91	3.58585142072e-55
5.92	2.30529548502e-55
5.93	1.48091992487e-55
5.94	9.50620616771e-56
5.95	6.09752466496e-56
5.96	3.90814433919e-56
5.97	2.50298545107e-56
5.98	1.60183125829e-56
5.99	1.02434421809e-56
6.0	6.54554483094e-57
#normalisation = 0.3
#eerste moment n(k)k**2 = 0.232672630694
#2e moment n(k)k**2 = 0.199306637611
#3e moment n(k)k**2 = 0.185492798751
#4e moment n(k)k**2 = 0.185374633713
#sigma**2 n(k)k**2 = 0.145170084537
#kurtosis n(k)k**2 = 0.259155309707
#skewness n(k)k**2 = 1.29386014786
