# mass number (A) = 40
# number of protons (Z) = 20
#units k = 1/fm , units n_1(k) = fm^3
# k (1/fm)	tot
0.0	0.0
0.01	3.10919970484e-07
0.02	4.96910666737e-06
0.03	2.5108815221e-05
0.04	7.9147495729e-05
0.05	0.000192577873643
0.06	0.000397679930554
0.07	0.000733155812099
0.08	0.00124369149579
0.09	0.00197944981451
0.1	0.00299550014306
0.11	0.00435119070701
0.12	0.00610947005927
0.13	0.0083361647821
0.14	0.0110992209078
0.15	0.0144679169032
0.16	0.0185120563282
0.17	0.0233011484593
0.18	0.0289035852528
0.19	0.0353858230226
0.2	0.0428115771161
0.21	0.0512410376903
0.22	0.0607301144276
0.23	0.0713297176856
0.24	0.0830850831525
0.25	0.0960351465886
0.26	0.110211974676
0.27	0.125640257387
0.28	0.142336866611
0.29	0.160310485076
0.3	0.179561308871
0.31	0.200080826076
0.32	0.221851673279
0.33	0.244847570901
0.34	0.26903333753
0.35	0.294364982635
0.36	0.320789876295
0.37	0.348246993838
0.38	0.376667232582
0.39	0.405973797213
0.4	0.436082649725
0.41	0.466903019267
0.42	0.498337966775
0.43	0.530284998781
0.44	0.56263672446
0.45	0.595281549634
0.46	0.628104401223
0.47	0.660987475483
0.48	0.693811003243
0.49	0.726454025345
0.5	0.758795171533
0.51	0.790713436129
0.52	0.822088944023
0.53	0.852803700712
0.54	0.882742320432
0.55	0.91179272674
0.56	0.939846820315
0.57	0.966801109131
0.58	0.992557296649
0.59	1.01702282415
0.6	1.04011136382
0.61	1.06174325979
0.62	1.08184591475
0.63	1.10035412048
0.64	1.117210331
0.65	1.13236487769
0.66	1.14577612622
0.67	1.15741057568
0.68	1.1672429007
0.69	1.17525593792
0.7	1.18144061849
0.71	1.18579584882
0.72	1.18832834199
0.73	1.1890524028
0.74	1.1879896694
0.75	1.18516881509
0.76	1.1806252137
0.77	1.17440057235
0.78	1.1665425356
0.79	1.15710426473
0.8	1.14614399634
0.81	1.13372458418
0.82	1.11991302831
0.83	1.10477999532
0.84	1.08839933364
0.85	1.07084758748
0.86	1.05220351305
0.87	1.03254760035
0.88	1.01196160367
0.89	0.99052808385
0.9	0.968329964893
0.91	0.945450107461
0.92	0.921970901431
0.93	0.897973879464
0.94	0.873539353266
0.95	0.848746073955
0.96	0.823670917692
0.97	0.798388597454
0.98	0.772971401597
0.99	0.747488959615
1.0	0.722008035231
1.01	0.696592346793
1.02	0.671302414677
1.03	0.646195435272
1.04	0.621325180871
1.05	0.596741924706
1.06	0.572492390154
1.07	0.548619723065
1.08	0.525163486009
1.09	0.502159673192
1.1	0.47964074466
1.11	0.457635678405
1.12	0.436170038894
1.13	0.415266060556
1.14	0.394942744706
1.15	0.375215968419
1.16	0.356098603854
1.17	0.337600646563
1.18	0.319729351361
1.19	0.302489374342
1.2	0.285882919733
1.21	0.269909890281
1.22	0.254568039969
1.23	0.239853127922
1.24	0.225759072417
1.25	0.212278104027
1.26	0.199400916971
1.27	0.187116817843
1.28	0.175413870984
1.29	0.164279039812
1.3	0.153698323539
1.31	0.143656888762
1.32	0.134139195501
1.33	0.125129117324
1.34	0.116610055279
1.35	0.108565045415
1.36	0.100976859732
1.37	0.0938281004798
1.38	0.0871012877438
1.39	0.0807789403577
1.4	0.074843650177
1.41	0.0692781498274
1.42	0.064065374061
1.43	0.059188514891
1.44	0.0546310707065
1.45	0.0503768895894
1.46	0.0464102070797
1.47	0.0427156786512
1.48	0.0392784071713
1.49	0.0360839656313
1.5	0.0331184154391
1.51	0.0303683205681
1.52	0.0278207578612
1.53	0.0254633237838
1.54	0.0232841379192
1.55	0.0212718434911
1.56	0.019415605195
1.57	0.0177051046082
1.58	0.0161305334393
1.59	0.0146825848684
1.6	0.0133524432164
1.61	0.0121317721688
1.62	0.0110127017683
1.63	0.00998781437607
1.64	0.00905012978846
1.65	0.00819308968206
1.66	0.00741054154809
1.67	0.00669672226211
1.68	0.00604624142346
1.69	0.00545406458558
1.7	0.00491549648659
1.71	0.00442616437769
1.72	0.00398200153573
1.73	0.00357923103594
1.74	0.00321434985064
1.75	0.00288411333033
1.76	0.00258552011497
1.77	0.002315797515
1.78	0.00207238739391
1.79	0.00185293257783
1.8	0.00165526381045
1.81	0.00147738726668
1.82	0.00131747263268
1.83	0.00117384175551
1.84	0.0010449578615
1.85	0.00092941533885
1.86	0.000825930076629
1.87	0.000733330349799
1.88	0.000650548237477
1.89	0.000576611559662
1.9	0.00051063631609
1.91	0.000451819609547
1.92	0.000399433034991
1.93	0.000352816515046
1.94	0.000311372561964
1.95	0.000274560945811
1.96	0.000241893748534
1.97	0.000212930783603
1.98	0.00018727536112
1.99	0.000164570378591
2.0	0.000144494717975
2.01	0.000126759930135
2.02	0.000111107188377
2.03	9.73044934199e-05
2.04	8.51441127957e-05
2.05	7.44402384189e-05
2.06	6.50268467779e-05
2.07	5.67557469738e-05
2.08	4.9494802581e-05
2.09	4.31263140693e-05
2.1	3.7545549275e-05
2.11	3.26594101563e-05
2.12	2.8385224789e-05
2.13	2.46496542672e-05
2.14	2.13877048565e-05
2.15	1.85418364069e-05
2.16	1.60611586622e-05
2.17	1.39007077103e-05
2.18	1.20207953904e-05
2.19	1.03864250206e-05
2.2	8.96676732565e-06
2.21	7.73469093008e-06
2.22	6.66634223944e-06
2.23	5.74076996233e-06
2.24	4.93958992531e-06
2.25	4.2466862075e-06
2.26	3.64794496908e-06
2.27	3.13101767106e-06
2.28	2.68511068211e-06
2.29	2.3007985449e-06
2.3	1.96985842888e-06
2.31	1.68512353045e-06
2.32	1.44035339733e-06
2.33	1.23011935036e-06
2.34	1.04970335699e-06
2.35	8.95008875085e-07
2.36	7.62482335903e-07
2.37	6.49044071777e-07
2.38	5.52027617969e-07
2.39	4.69126430757e-07
2.4	3.98347165602e-07
2.41	3.37968751293e-07
2.42	2.86506579014e-07
2.43	2.42681200057e-07
2.44	2.05390993263e-07
2.45	1.73688323636e-07
2.46	1.46758767838e-07
2.47	1.23903030789e-07
2.48	1.04521220978e-07
2.49	8.80991908696e-08
2.5	7.4196683339e-08
2.51	6.24370558043e-08
2.52	5.24983811205e-08
2.53	4.41057485559e-08
2.54	3.7024609724e-08
2.55	3.10550334144e-08
2.56	2.60267501312e-08
2.57	2.17948820498e-08
2.58	1.8236267239e-08
2.59	1.52462985783e-08
2.6	1.27362079807e-08
2.61	1.06307354861e-08
2.62	8.866130643e-09
2.63	7.38844048416e-09
2.64	6.15204442754e-09
2.65	5.11840170762e-09
2.66	4.25498154397e-09
2.67	3.53435027016e-09
2.68	2.93339314511e-09
2.69	2.43265161349e-09
2.7	2.01575942826e-09
2.71	1.66896334657e-09
2.72	1.38071610241e-09
2.73	1.14133108575e-09
2.74	9.42689651106e-10
2.75	7.77993269134e-10
2.76	6.41553848968e-10
2.77	5.28616519707e-10
2.78	4.35209986917e-10
2.79	3.58020291935e-10
2.8	2.942844136e-10
2.81	2.41700677257e-10
2.82	1.9835338631e-10
2.83	1.62649477405e-10
2.84	1.3326533045e-10
2.85	1.09102146877e-10
2.86	8.92485504733e-11
2.87	7.29492706047e-11
2.88	5.95789427433e-11
2.89	4.86202102304e-11
2.9	3.96454378963e-11
2.91	3.23014557705e-11
2.92	2.62968424065e-11
2.93	2.13913347268e-11
2.94	1.73870168069e-11
2.95	1.41209954266e-11
2.96	1.14593170357e-11
2.97	9.29192030053e-12
2.98	7.52845171425e-12
2.99	6.09479982551e-12
3.0	4.9302272548e-12
3.01	3.98499952391e-12
3.02	3.21842639604e-12
3.03	2.59724541218e-12
3.04	2.09428903242e-12
3.05	1.687386606e-12
3.06	1.35846060392e-12
3.07	1.09278340776e-12
3.08	8.7836667526e-13
3.09	7.0546007851e-13
3.1	5.66140189766e-13
3.11	4.53973601098e-13
3.12	3.63741117853e-13
3.13	2.91212153125e-13
3.14	2.32960348658e-13
3.15	1.86213021312e-13
3.16	1.48728337726e-13
3.17	1.18695198357e-13
3.18	9.46517037448e-14
3.19	7.54188121803e-14
3.2	6.00464055737e-14
3.21	4.77694810995e-14
3.22	3.79725986471e-14
3.23	3.01610534065e-14
3.24	2.39375218235e-14
3.25	1.89831581739e-14
3.26	1.50423068924e-14
3.27	1.19101497859e-14
3.28	9.42273335571e-15
3.29	7.44892460724e-15
3.3	5.88392803685e-15
3.31	4.644065326e-15
3.32	3.66257543223e-15
3.33	2.88623853783e-15
3.34	2.27266458563e-15
3.35	1.78811745017e-15
3.36	1.40577043367e-15
3.37	1.10430878462e-15
3.38	8.66811168954e-16
3.39	6.79855179166e-16
3.4	5.32802620021e-16
3.41	4.17228927633e-16
3.42	3.26468044547e-16
3.43	2.55249698591e-16
3.44	1.99410571465e-16
3.45	1.55664501115e-16
3.46	1.21419807791e-16
3.47	9.46342039106e-17
3.48	7.36996531101e-17
3.49	5.73510740738e-17
3.5	4.45940125145e-17
3.51	3.4647388983e-17
3.52	2.68982185505e-17
3.53	2.08658292728e-17
3.54	1.61736107286e-17
3.55	1.25267268132e-17
3.56	9.69454850667e-18
3.57	7.49681870632e-18
3.58	5.79276545623e-18
3.59	4.47254246187e-18
3.6	3.45050504844e-18
3.61	2.65993242557e-18
3.62	2.04888864796e-18
3.63	1.57697932016e-18
3.64	1.2128123275e-18
3.65	9.32011437244e-19
3.66	7.15663696986e-19
3.67	5.49106912614e-19
3.68	4.20983507953e-19
3.69	3.22502861639e-19
3.7	2.46866665067e-19
3.71	1.88821648254e-19
3.72	1.44311733441e-19
3.73	1.10207739623e-19
3.74	8.40975234345e-20
3.75	6.41231789455e-20
3.76	4.8854849008e-20
3.77	3.71929960889e-20
3.78	2.82927770249e-20
3.79	2.15055709641e-20
3.8	1.63338073857e-20
3.81	1.23960979174e-20
3.82	9.400343964e-21
3.83	7.12301293723e-21
3.84	5.39318135785e-21
3.85	4.08025852794e-21
3.86	3.08454963962e-21
3.87	2.33000757552e-21
3.88	1.75867038048e-21
3.89	1.32639590409e-21
3.9	9.99593816296e-22
3.91	7.52723845442e-22
3.92	5.66382166783e-22
3.93	4.25838877074e-22
3.94	3.19921143656e-22
3.95	2.40161028479e-22
3.96	1.80145798591e-22
3.97	1.35023017405e-22
3.98	1.01123851968e-22
3.99	7.56765942013e-23
4.0	5.65889697114e-23
4.01	4.22828530765e-23
4.02	3.15688763311e-23
4.03	2.35513800045e-23
4.04	1.75564233872e-23
4.05	1.30773044311e-23
4.06	9.73336427375e-24
4.07	7.23886250517e-24
4.08	5.37948049333e-24
4.09	3.99459778246e-24
4.1	2.96393405876e-24
4.11	2.19748960703e-24
4.12	1.62797594796e-24
4.13	1.20512487435e-24
4.14	8.91413235891e-25
4.15	6.58853893131e-25
4.16	4.86588918332e-25
4.17	3.59085955345e-25
4.18	2.64787683547e-25
4.19	1.95101381613e-25
4.2	1.43643560155e-25
4.21	1.05675734238e-25
4.22	7.76833118297e-26
4.23	5.70615522732e-26
4.24	4.18815617968e-26
4.25	3.0716069257e-26
4.26	2.25098155421e-26
4.27	1.64832106068e-26
4.28	1.20607772738e-26
4.29	8.81804782517e-27
4.3	6.44218673578e-27
4.31	4.70281526723e-27
4.32	3.43041232339e-27
4.33	2.50033710456e-27
4.34	1.8210198851e-27
4.35	1.32524060406e-27
4.36	9.63693089667e-28
4.37	7.00239754824e-28
4.38	5.08415557302e-28
4.39	3.6885441834e-28
4.4	2.67396230561e-28
4.41	1.93695595147e-28
4.42	1.40200131762e-28
4.43	1.01400793387e-28
4.44	7.32822134309e-29
4.45	5.29200368101e-29
4.46	3.81861672422e-29
4.47	2.75331826446e-29
4.48	1.98367816503e-29
4.49	1.42807330418e-29
4.5	1.02729297329e-29
4.51	7.38418726007e-30
4.52	5.30366019605e-30
4.53	3.8063903504e-30
4.54	2.72970450708e-30
4.55	1.95606223215e-30
4.56	1.4006010691e-30
4.57	1.00209992786e-30
4.58	7.16427810918e-31
4.59	5.11798143487e-31
4.6	3.65333818752e-31
4.61	2.60582942021e-31
4.62	1.85723586366e-31
4.63	1.32267500602e-31
4.64	9.4124845169e-32
4.65	6.69299468093e-32
4.66	4.75556143781e-32
4.67	3.37635621745e-32
4.68	2.39529994047e-32
4.69	1.69799638753e-32
4.7	1.20275970123e-32
4.71	8.51307102962e-33
4.72	6.02086598621e-33
4.73	4.25497500045e-33
4.74	3.00469535919e-33
4.75	2.12016320766e-33
4.76	1.49487055578e-33
4.77	1.05318183693e-33
4.78	7.41427422176e-34
4.79	5.21554229383e-34
4.8	3.66602880522e-34
4.81	2.57488525744e-34
4.82	1.80711389741e-34
4.83	1.26729826271e-34
4.84	8.88050887708e-35
4.85	6.21817007256e-35
4.86	4.35063951962e-35
4.87	3.04165110131e-35
4.88	2.12486583034e-35
4.89	1.48326749967e-35
4.9	1.03460203933e-35
4.91	7.21096006052e-36
4.92	5.02202407501e-36
4.93	3.49486544719e-36
4.94	2.43023419966e-36
4.95	1.68861959224e-36
4.96	1.17241556559e-36
4.97	8.13387347081e-37
4.98	5.63870484183e-37
4.99	3.90595695669e-37
5.0	2.70359549152e-37
5.01	1.86991631687e-37
5.02	1.29231639483e-37
5.03	8.92445675082e-38
5.04	6.15830230794e-38
5.05	4.24625945269e-38
5.06	2.92562314527e-38
5.07	2.01417221509e-38
5.08	1.38561062882e-38
5.09	9.52472018402e-39
5.1	6.54228842325e-39
5.11	4.49028197609e-39
5.12	3.07952713486e-39
5.13	2.11038152029e-39
5.14	1.4451218262e-39
5.15	9.88813793825e-40
5.16	6.76069226487e-40
5.17	4.61885620014e-40
5.18	3.15314804234e-40
5.19	2.15090363541e-40
5.2	1.46610218939e-40
5.21	9.98560200653e-41
5.22	6.79596304905e-41
5.23	4.62162321297e-41
5.24	3.14054382273e-41
5.25	2.13246542838e-41
5.26	1.44685824546e-41
5.27	9.80927331441e-42
5.28	6.64529979178e-42
5.29	4.49841206944e-42
5.3	3.04278195137e-42
5.31	2.05659790452e-42
5.32	1.38897660661e-42
5.33	9.3736229835e-43
5.34	6.32101852763e-43
5.35	4.25925555781e-43
5.36	2.86779042884e-43
5.37	1.9294264262e-43
5.38	1.29710805372e-43
5.39	8.71347186924e-44
5.4	5.84889032079e-44
5.41	3.92304157015e-44
5.42	2.62929643963e-44
5.43	1.76085432757e-44
5.44	1.17835068589e-44
5.45	7.87939667286e-45
5.46	5.26476108811e-45
5.47	3.51505148016e-45
5.48	2.3450497032e-45
5.49	1.56329081177e-45
5.5	1.04134558712e-45
5.51	6.93134298838e-46
5.52	4.61006790892e-46
5.53	3.06383025597e-46
5.54	2.03464920824e-46
5.55	1.35014953998e-46
5.56	8.95244595855e-47
5.57	5.93156194041e-47
5.58	3.92702782417e-47
5.59	2.59792406945e-47
5.6	1.71734090945e-47
5.61	1.13436856737e-47
5.62	7.48720076543e-48
5.63	4.93801516363e-48
5.64	3.25426582313e-48
5.65	2.14299578062e-48
5.66	1.41012402144e-48
5.67	9.27173540011e-49
5.68	6.09161559428e-49
5.69	3.99918699934e-49
5.7	2.62348577943e-49
5.71	1.71970326637e-49
5.72	1.12640906206e-49
5.73	7.37236098009e-50
5.74	4.82153032915e-50
5.75	3.15087436985e-50
5.76	2.05752520394e-50
5.77	1.34253974076e-50
5.78	8.75340584442e-51
5.79	5.70288908686e-51
5.8	3.71262213783e-51
5.81	2.41509687888e-51
5.82	1.56984351436e-51
5.83	1.01963840959e-51
5.84	6.61765383374e-52
5.85	4.29170593703e-52
5.86	2.78114695871e-52
5.87	1.80088510607e-52
5.88	1.1652421316e-52
5.89	7.53380670319e-53
5.9	4.86721920469e-53
5.91	3.14206738194e-53
5.92	2.02683434567e-53
5.93	1.3064392057e-53
5.94	8.41450089068e-54
5.95	5.41546482192e-54
5.96	3.48266223401e-54
5.97	2.23797499251e-54
5.98	1.43703509365e-54
5.99	9.22035849384e-55
6.0	5.91148435242e-55
#normalisation = 0.5
#eerste moment n(k)k**2 = 0.465345261388
#2e moment n(k)k**2 = 0.465048821092
#3e moment n(k)k**2 = 0.494647463335
#4e moment n(k)k**2 = 0.55612390114
#sigma**2 n(k)k**2 = 0.248502608796
#kurtosis n(k)k**2 = -1.39771037612
#skewness n(k)k**2 = 0.379082102184
