# mass number (A) = 56
# number of protons (Z) = 26
#units k = 1/fm , units n_1(k) = fm^3
# k (1/fm)	tot
0.0	1.35039624908
0.01	1.34983935262
0.02	1.34817004082
0.03	1.34539244077
0.04	1.34151341205
0.05	1.33654251853
0.06	1.33049198905
0.07	1.32337666729
0.08	1.31521395115
0.09	1.3060237218
0.1	1.29582826306
0.11	1.28465217135
0.12	1.27252225689
0.13	1.25946743652
0.14	1.24551861894
0.15	1.23070858287
0.16	1.21507184884
0.17	1.19864454532
0.18	1.18146426993
0.19	1.1635699464
0.2	1.14500167815
0.21	1.12580059918
0.22	1.10600872303
0.23	1.08566879071
0.24	1.06482411813
0.25	1.04351844405
0.26	1.02179577912
0.27	0.999700256703
0.28	0.977275986352
0.29	0.954566910413
0.3	0.931616664502
0.31	0.908468442401
0.32	0.885164865956
0.33	0.861747860478
0.34	0.838258536125
0.35	0.814737075686
0.36	0.791222629158
0.37	0.767753215422
0.38	0.744365631321
0.39	0.72109536836
0.4	0.697976537205
0.41	0.675041800114
0.42	0.652322311388
0.43	0.62984766586
0.44	0.607645855423
0.45	0.585743233526
0.46	0.564164487548
0.47	0.542932618896
0.48	0.522068930648
0.49	0.501593022534
0.5	0.481522792983
0.51	0.461874447972
0.52	0.442662516361
0.53	0.423899871377
0.54	0.405597757901
0.55	0.387765825176
0.56	0.370412164548
0.57	0.353543351852
0.58	0.337164494017
0.59	0.321279279489
0.6	0.305890032048
0.61	0.290997767606
0.62	0.276602253565
0.63	0.262702070334
0.64	0.2492946746
0.65	0.236376463954
0.66	0.223942842506
0.67	0.211988287115
0.68	0.200506413876
0.69	0.189490044548
0.7	0.178931272586
0.71	0.168821528505
0.72	0.159151644267
0.73	0.149911916468
0.74	0.14109216807
0.75	0.132681808467
0.76	0.124669891698
0.77	0.117045172637
0.78	0.109796161003
0.79	0.102911173075
0.8	0.0963783809924
0.81	0.0901858595605
0.82	0.0843216304945
0.83	0.0787737040482
0.84	0.0735301179995
0.85	0.0685789739766
0.86	0.0639084711269
0.87	0.0595069371441
0.88	0.0553628566828
0.89	0.051464897204
0.9	0.0478019323031
0.91	0.0443630625859
0.92	0.0411376341657
0.93	0.0381152548607
0.94	0.0352858081821
0.95	0.0326394652058
0.96	0.0301666944264
0.97	0.0278582696966
0.98	0.0257052763584
0.99	0.0236991156725
1.0	0.021831507656
1.01	0.0200944924382
1.02	0.0184804302421
1.03	0.0169820001022
1.04	0.0155921974228
1.05	0.0143043304834
1.06	0.0131120159923
1.07	0.012009173787
1.08	0.0109900207777
1.09	0.010049064225
1.1	0.00918109444043
1.11	0.0083811769924
1.12	0.00764464449704
1.13	0.00696708806906
1.14	0.00634434850213
1.15	0.00577250724441
1.16	0.00524787722996
1.17	0.00476699362221
1.18	0.00432660452111
1.19	0.00392366168106
1.2	0.00355531128238
1.21	0.00321888479501
1.22	0.00291188996865
1.23	0.00263200198022
1.24	0.00237705476509
1.25	0.00214503255569
1.26	0.00193406164711
1.27	0.00174240240656
1.28	0.00156844154043
1.29	0.00141068462996
1.3	0.0012677489439
1.31	0.00113835653439
1.32	0.00102132761984
1.33	0.00091557425681
1.34	0.000820094301215
1.35	0.000733965657188
1.36	0.000656340810963
1.37	0.00058644164558
1.38	0.000523554531205
1.39	0.000467025684924
1.4	0.000416256793007
1.41	0.000370700887985
1.42	0.000329858472296
1.43	0.000293273879833
1.44	0.000260531866333
1.45	0.000231254419342
1.46	0.00020509777828
1.47	0.000181749655071
1.48	0.000160926645752
1.49	0.000142371823541
1.5	0.000125852503924
1.51	0.000111158172463
1.52	9.80985662196e-05
1.53	8.65018999099e-05
1.54	7.62132281318e-05
1.55	6.7092935315e-05
1.56	5.90153453081e-05
1.57	5.18674428413e-05
1.58	4.55476994167e-05
1.59	3.99649965092e-05
1.6	3.50376392914e-05
1.61	3.06924544318e-05
1.62	2.68639658469e-05
1.63	2.34936426209e-05
1.64	2.05292136279e-05
1.65	1.79240437157e-05
1.66	1.56365666158e-05
1.67	1.36297700496e-05
1.68	1.18707287894e-05
1.69	1.0330181717e-05
1.7	8.98214918792e-06
1.71	7.80358726996e-06
1.72	6.77407566839e-06
1.73	5.87553638417e-06
1.74	5.09198037204e-06
1.75	4.40927967416e-06
1.76	3.81496270195e-06
1.77	3.29803052354e-06
1.78	2.84879218779e-06
1.79	2.45871727815e-06
1.8	2.12030404127e-06
1.81	1.82696157615e-06
1.82	1.57290470131e-06
1.83	1.35306023871e-06
1.84	1.16298356632e-06
1.85	9.9878439514e-07
1.86	8.5706082253e-07
1.87	7.34840802529e-07
1.88	6.2953025467e-07
1.89	5.38867107734e-07
1.9	4.60880643055e-07
1.91	3.93855564465e-07
1.92	3.36300278996e-07
1.93	2.86918924391e-07
1.94	2.44586726763e-07
1.95	2.08328314661e-07
1.96	1.77298654776e-07
1.97	1.50766309766e-07
1.98	1.28098750601e-07
1.99	1.08749484606e-07
2.0	9.2246786353e-08
2.01	7.81838419514e-08
2.02	6.62101382656e-08
2.03	5.60239474905e-08
2.04	4.73657744144e-08
2.05	4.00126488485e-08
2.06	3.37731592412e-08
2.07	2.84831355858e-08
2.08	2.4001900508e-08
2.09	2.02090170208e-08
2.1	1.70014699688e-08
2.11	1.42912257689e-08
2.12	1.20031217742e-08
2.13	1.00730425533e-08
2.14	8.4463456405e-09
2.15	7.0765039773e-09
2.16	5.92393637061e-09
2.17	4.95500092142e-09
2.18	4.14112956436e-09
2.19	3.45808466564e-09
2.2	2.88532108912e-09
2.21	2.4054393021e-09
2.22	2.0037169848e-09
2.23	1.6677082649e-09
2.24	1.38690114614e-09
2.25	1.15242496426e-09
2.26	9.56800806162e-10
2.27	7.93728787839e-10
2.28	6.57906922503e-10
2.29	5.44877035692e-10
2.3	4.50893814523e-10
2.31	3.72813624327e-10
2.32	3.08000199002e-10
2.33	2.54244720637e-10
2.34	2.09698157521e-10
2.35	1.72814034827e-10
2.36	1.42300075383e-10
2.37	1.17077374499e-10
2.38	9.624596775e-11
2.39	7.90558180858e-11
2.4	6.4882392405e-11
2.41	5.3206120995e-11
2.42	4.35951388029e-11
2.43	3.56907978316e-11
2.44	2.91955171393e-11
2.45	2.38626028263e-11
2.46	1.94877265874e-11
2.47	1.59017992832e-11
2.48	1.29650167265e-11
2.49	1.05618895098e-11
2.5	8.59709811056e-12
2.51	6.99203945821e-12
2.52	5.68195228721e-12
2.53	4.61352649491e-12
2.54	3.74291685729e-12
2.55	3.0340942374e-12
2.56	2.45747820969e-12
2.57	1.9888041164e-12
2.58	1.60818523041e-12
2.59	1.29933714107e-12
2.6	1.04893689352e-12
2.61	8.46093957247e-13
2.62	6.81913911447e-13
2.63	5.49138928467e-13
2.64	4.41851809606e-13
2.65	3.55232562392e-13
2.66	2.85358375246e-13
2.67	2.29039403063e-13
2.68	1.83684075679e-13
2.69	1.47188722433e-13
2.7	1.1784720555e-13
2.71	9.42770026051e-14
2.72	7.53587989894e-14
2.73	6.01871660725e-14
2.74	4.80303272862e-14
2.75	3.82973674359e-14
2.76	3.05115325109e-14
2.77	2.42885084749e-14
2.78	1.93187665846e-14
2.79	1.53532269192e-14
2.8	1.21916269944e-14
2.81	9.67309358344e-15
2.82	7.66850732038e-15
2.83	6.07432476796e-15
2.84	4.80758425442e-15
2.85	3.80187229397e-15
2.86	3.00406876532e-15
2.87	2.37172285865e-15
2.88	1.87093945402e-15
2.89	1.47467817218e-15
2.9	1.16138575545e-15
2.91	9.13897443872e-16
2.92	7.18555229936e-16
2.93	5.64500812408e-16
2.94	4.43109144138e-16
2.95	3.47535023467e-16
2.96	2.7235049442e-16
2.97	2.13255127733e-16
2.98	1.66844740839e-16
2.99	1.30426934003e-16
3.0	1.01874097264e-16
3.01	7.95063810744e-17
3.02	6.19986057519e-17
3.03	4.83062789169e-17
3.04	3.76068511126e-17
3.05	2.92531124968e-17
3.06	2.27362542106e-17
3.07	1.76566161626e-17
3.08	1.37005423686e-17
3.09	1.06220849087e-17
3.1	8.22855358738e-18
3.11	6.3691130765e-18
3.12	4.92579282122e-18
3.13	3.8064054636e-18
3.14	2.93897356093e-18
3.15	2.26734723039e-18
3.16	1.74776128458e-18
3.17	1.3461328404e-18
3.18	1.03594201822e-18
3.19	7.96571386594e-19
3.2	6.12006000541e-19
3.21	4.69816627363e-19
3.22	3.60365170908e-19
3.23	2.76184283866e-19
3.24	2.11493409103e-19
3.25	1.61821580415e-19
3.26	1.2371369077e-19
3.27	9.45019593641e-20
3.28	7.21282818679e-20
3.29	5.50062560138e-20
3.3	4.19141158012e-20
3.31	3.19117232204e-20
3.32	2.42762683019e-20
3.33	1.8452504729e-20
3.34	1.4014268904e-20
3.35	1.06347501718e-20
3.36	8.06354218202e-21
3.37	6.10894417975e-21
3.38	4.62432315789e-21
3.39	3.49761432956e-21
3.4	2.64324480722e-21
3.41	1.9959266653e-21
3.42	1.50589086035e-21
3.43	1.13523073102e-21
3.44	8.55099210032e-22
3.45	6.43562301089e-22
3.46	4.83956593346e-22
3.47	3.63633554041e-22
3.48	2.73000356877e-22
3.49	2.04787857968e-22
3.5	1.53492414066e-22
3.51	1.14950629571e-22
3.52	8.60156580782e-23
3.53	6.43110207774e-23
3.54	4.80435415516e-23
3.55	3.58613264855e-23
3.56	2.6746035082e-23
3.57	1.99312343037e-23
3.58	1.48405741681e-23
3.59	1.10410134104e-23
3.6	8.20746228109e-24
3.61	6.09607888383e-24
3.62	4.52411864041e-24
3.63	3.35474193109e-24
3.64	2.48556985496e-24
3.65	1.84007088567e-24
3.66	1.36108378133e-24
3.67	1.00595114344e-24
3.68	7.42866275512e-25
3.69	5.48133217294e-25
3.7	4.04113468072e-25
3.71	2.97688633341e-25
3.72	2.19110355983e-25
3.73	1.61140713064e-25
3.74	1.18410272967e-25
3.75	8.69391135962e-26
3.76	6.37797420005e-26
3.77	4.67511214229e-26
3.78	3.42407313291e-26
3.79	2.50573855644e-26
3.8	1.83218871478e-26
3.81	1.33858630204e-26
3.82	9.77156833868e-27
3.83	7.12728122524e-27
3.84	5.19427862168e-27
3.85	3.78240746682e-27
3.86	2.75202964217e-27
3.87	2.0006891968e-27
3.88	1.45327522954e-27
3.89	1.05477017229e-27
3.9	7.64908581197e-28
3.91	5.54246489193e-28
3.92	4.01271294511e-28
3.93	2.90278559799e-28
3.94	2.0981355912e-28
3.95	1.51528340359e-28
3.96	1.09344239096e-28
3.97	7.8838739398e-29
3.98	5.67969690882e-29
3.99	4.08839053653e-29
4.0	2.94050087212e-29
4.01	2.11315802408e-29
4.02	1.5173450857e-29
4.03	1.0886254276e-29
4.04	7.80394698375e-30
4.05	5.58974338986e-30
4.06	4.00047127413e-30
4.07	2.86069901183e-30
4.08	2.04397180224e-30
4.09	1.45921524707e-30
4.1	1.04089169177e-30
4.11	7.41879635282e-31
4.12	5.28327336064e-31
4.13	3.75936452325e-31
4.14	2.67280650697e-31
4.15	1.89872612346e-31
4.16	1.3477174633e-31
4.17	9.55822194084e-32
4.18	6.77324975232e-32
4.19	4.79577493474e-32
4.2	3.39283095427e-32
4.21	2.39832135477e-32
4.22	1.69392528869e-32
4.23	1.19542642961e-32
4.24	8.42933239208e-33
4.25	5.93888930237e-33
4.26	4.18079627627e-33
4.27	2.94072562064e-33
4.28	2.06676800395e-33
4.29	1.45134505738e-33
4.3	1.01833659642e-33
4.31	7.13926905261e-34
4.32	5.00101170988e-34
4.33	3.50028750895e-34
4.34	2.44788656881e-34
4.35	1.71049017973e-34
4.36	1.194239978e-34
4.37	8.33113841804e-35
4.38	5.80709350948e-35
4.39	4.04440848746e-35
4.4	2.81444607108e-35
4.41	1.9569177573e-35
4.42	1.35954610923e-35
4.43	9.4375014875e-36
4.44	6.5457866998e-36
4.45	4.53636916842e-36
4.46	3.14120771425e-36
4.47	2.17333485499e-36
4.48	1.50244422709e-36
4.49	1.03779553554e-36
4.5	7.16253836711e-37
4.51	4.93928230606e-37
4.52	3.40331745655e-37
4.53	2.34305669903e-37
4.54	1.61177664836e-37
4.55	1.107818581e-37
4.56	7.60806396666e-38
4.57	5.22061167353e-38
4.58	3.57940095314e-38
4.59	2.45211612459e-38
4.6	1.67846945161e-38
4.61	1.14796216382e-38
4.62	7.8448280987e-39
4.63	5.35649881577e-39
4.64	3.65443565499e-39
4.65	2.49115844186e-39
4.66	1.69677440931e-39
4.67	1.15475163363e-39
4.68	7.85226213871e-40
4.69	5.33510189431e-40
4.7	3.62186594309e-40
4.71	2.45676575271e-40
4.72	1.66508669934e-40
4.73	1.12759120156e-40
4.74	7.6297134911e-41
4.75	5.15829891914e-41
4.76	3.48454843704e-41
4.77	2.3519507893e-41
4.78	1.58617711573e-41
4.79	1.06885022666e-41
4.8	7.1965401378e-42
4.81	4.84141570603e-42
4.82	3.25433848462e-42
4.83	2.18572134685e-42
4.84	1.4667921942e-42
4.85	9.83522072448e-43
4.86	6.58933149032e-43
4.87	4.41103319446e-43
4.88	2.95040082148e-43
4.89	1.97180261887e-43
4.9	1.31670226424e-43
4.91	8.78523635681e-44
4.92	5.85680874747e-44
4.93	3.90130908692e-44
4.94	2.59657816418e-44
4.95	1.72676869408e-44
4.96	1.14738364927e-44
4.97	7.61771764945e-45
4.98	5.05338993261e-45
4.99	3.34951922345e-45
5.0	2.21831830513e-45
5.01	1.46793550785e-45
5.02	9.70581061901e-46
5.03	6.41207177178e-46
5.04	4.23259447968e-46
5.05	2.79162238422e-46
5.06	1.83970592609e-46
5.07	1.21138409467e-46
5.08	7.96997669442e-47
5.09	5.2393083675e-47
5.1	3.44137970812e-47
5.11	2.25856685984e-47
5.12	1.4810681196e-47
5.13	9.70417993341e-48
5.14	6.3530806983e-48
5.15	4.15577118722e-48
5.16	2.71619288985e-48
5.17	1.77382721121e-48
5.18	1.1574540055e-48
5.19	7.54636654372e-49
5.2	4.91602150868e-49
5.21	3.19986294471e-49
5.22	2.08108924363e-49
5.23	1.35235825496e-49
5.24	8.78080904449e-50
5.25	5.69664339085e-50
5.26	3.69271047932e-50
5.27	2.39173582488e-50
5.28	1.54782865693e-50
5.29	1.00086218737e-50
5.3	6.46647205695e-51
5.31	4.17447873498e-51
5.32	2.69264330051e-51
5.33	1.73539012675e-51
5.34	1.1175247328e-51
5.35	7.19049666952e-52
5.36	4.62277078345e-52
5.37	2.96952888903e-52
5.38	1.90596303724e-52
5.39	1.22231493386e-52
5.4	7.83237524693e-53
5.41	5.01470718472e-53
5.42	3.20803720567e-53
5.43	2.05057160048e-53
5.44	1.30964082475e-53
5.45	8.35740012969e-54
5.46	5.32883055514e-54
5.47	3.39495756899e-54
5.48	2.16111817163e-54
5.49	1.37456222271e-54
5.5	8.73558547128e-55
5.51	5.54704073544e-55
5.52	3.51943069587e-55
5.53	2.2311316882e-55
5.54	1.41325234839e-55
5.55	8.94449759581e-56
5.56	5.65631922935e-56
5.57	3.5739921717e-56
5.58	2.25639436404e-56
5.59	1.42337108839e-56
5.6	8.97145738485e-57
5.61	5.65001474767e-57
5.62	3.55531339255e-57
5.63	2.23536229235e-57
5.64	1.40429929253e-57
5.65	8.81481410524e-58
5.66	5.52851335861e-58
5.67	3.46453771321e-58
5.68	2.16932163513e-58
5.69	1.35720148598e-58
5.7	8.48411271886e-59
5.71	5.29919935312e-59
5.72	3.30716459648e-59
5.73	2.06225842747e-59
5.74	1.2849081637e-59
5.75	7.99913109446e-60
5.76	4.97571234112e-60
5.77	3.09249808672e-60
5.78	1.92046032301e-60
5.79	1.19163421069e-60
5.8	7.38792216489e-61
5.81	4.57660450969e-61
5.82	2.83273652023e-61
5.83	1.75190561068e-61
5.84	1.0825723982e-61
5.85	6.68413050627e-62
5.86	4.12358181977e-62
5.87	2.54182727825e-62
5.88	1.56552201974e-62
5.89	9.63416432198e-63
5.9	5.92393988662e-63
5.91	3.63956064884e-63
5.92	2.23423578344e-63
5.93	1.37041079214e-63
5.94	8.39874240772e-64
5.95	5.1430349713e-64
5.96	3.14678026504e-64
5.97	1.92377857075e-64
5.98	1.1751288057e-64
5.99	7.17228578627e-65
6.0	4.37392593289e-65
#normalisation = 0.0714285714286
#eerste moment n(k)k**2 = 0.039684930462
#2e moment n(k)k**2 = 0.0259752909579
#3e moment n(k)k**2 = 0.0192421154328
#4e moment n(k)k**2 = 0.0157433672748
#sigma**2 n(k)k**2 = 0.0244003972521
#kurtosis n(k)k**2 = 18.7120185695
#skewness n(k)k**2 = 4.26988150758
