# mass number (A) = 56
# number of protons (Z) = 26
#units k = 1/fm , units n_1(k) = fm^3
# k (1/fm)	tot
0.0	0.0
0.01	0.00111356323329
0.02	0.00444874447249
0.03	0.00998905238708
0.04	0.0177071146694
0.05	0.0275648469849
0.06	0.0395136876839
0.07	0.0534948964733
0.08	0.0694399147663
0.09	0.0872707849579
0.1	0.106900625441
0.11	0.128234157761
0.12	0.15116828194
0.13	0.175592695643
0.14	0.201390552584
0.15	0.228439155279
0.16	0.256610677052
0.17	0.285772908041
0.18	0.315790019785
0.19	0.346523342949
0.2	0.377832152654
0.21	0.40957445595
0.22	0.441607775978
0.23	0.473789927524
0.24	0.505979778768
0.25	0.538037994254
0.26	0.569827754333
0.27	0.601215446566
0.28	0.632071324911
0.29	0.662270132818
0.3	0.691691686708
0.31	0.720221416711
0.32	0.747750861888
0.33	0.774178117621
0.34	0.799408233219
0.35	0.82335355825
0.36	0.845934036519
0.37	0.867077447028
0.38	0.886719591683
0.39	0.904804429927
0.4	0.921284160841
0.41	0.936119253676
0.42	0.94927842812
0.43	0.960738585921
0.44	0.970484695854
0.45	0.978509634253
0.46	0.984813983622
0.47	0.98940579207
0.48	0.992300296487
0.49	0.993519612589
0.5	0.993092395062
0.51	0.991053471154
0.52	0.987443451146
0.53	0.982308319165
0.54	0.975699007808
0.55	0.967670960061
0.56	0.958283681903
0.57	0.947600288973
0.58	0.935687050528
0.59	0.922612933835
0.6	0.908449152002
0.61	0.893268718076
0.62	0.877146008072
0.63	0.860156335425
0.64	0.842375539137
0.65	0.823879587685
0.66	0.804744200561
0.67	0.785044489068
0.68	0.764854617798
0.69	0.744247487974
0.7	0.723294443632
0.71	0.7020650014
0.72	0.680626604406
0.73	0.659044400658
0.74	0.637381046037
0.75	0.61569653184
0.76	0.594048036664
0.77	0.572489802236
0.78	0.55107303263
0.79	0.529845816222
0.8	0.508853069539
0.81	0.488136502111
0.82	0.467734601288
0.83	0.447682635945
0.84	0.428012677877
0.85	0.408753639689
0.86	0.389931327887
0.87	0.371568509891
0.88	0.353684993652
0.89	0.336297718541
0.9	0.319420856219
0.91	0.303065920171
0.92	0.287241882633
0.93	0.27195529768
0.94	0.257210429274
0.95	0.24300938311
0.96	0.229352241178
0.97	0.216237197992
0.98	0.203660697512
0.99	0.191617569847
1.0	0.180101166897
1.01	0.169103496166
1.02	0.158615352031
1.03	0.148626443857
1.04	0.139125520368
1.05	0.130100489815
1.06	0.121538535489
1.07	0.113426226247
1.08	0.105749621734
1.09	0.0984943720858
1.1	0.0916458119284
1.11	0.0851890485551
1.12	0.0791090442119
1.13	0.0733906924673
1.14	0.0680188886876
1.15	0.0629785946776
1.16	0.0582548975822
1.17	0.0538330631766
1.18	0.049698583701
1.19	0.0458372204203
1.2	0.0422350411089
1.21	0.0388784526804
1.22	0.035754229194
1.23	0.0328495354818
1.24	0.0301519466497
1.25	0.0276494637074
1.26	0.0253305255912
1.27	0.0231840178375
1.28	0.021199278169
1.29	0.0193660992494
1.3	0.0176747288578
1.31	0.0161158677285
1.32	0.0146806652936
1.33	0.0133607135568
1.34	0.0121480393176
1.35	0.0110350949545
1.36	0.0100147479656
1.37	0.00908026945168
1.38	0.0082253217175
1.39	0.00744394515408
1.4	0.00673054455276
1.41	0.00607987499073
1.42	0.00548702741565
1.43	0.00494741404583
1.44	0.00445675369146
1.45	0.00401105709148
1.46	0.0036066123507
1.47	0.0032399705519
1.48	0.00290793160832
1.49	0.00260753041328
1.5	0.00233602333537
1.51	0.00209087509997
1.52	0.00186974609085
1.53	0.00167048009885
1.54	0.00149109253865
1.55	0.00132975914926
1.56	0.00118480518858
1.57	0.00105469512821
1.58	0.000938022850322
1.59	0.000833502345188
1.6	0.000739958904446
1.61	0.000656320802788
1.62	0.000581611458171
1.63	0.000514942058759
1.64	0.000455504643099
1.65	0.000402565618679
1.66	0.000355459702919
1.67	0.00031358426981
1.68	0.000276394084803
1.69	0.000243396410153
1.7	0.000214146462678
1.71	0.000188243205875
1.72	0.000165325458363
1.73	0.000145068300866
1.74	0.000127179764245
1.75	0.000111397781486
1.76	9.7487387022e-05
1.77	8.52381473165e-05
1.78	7.44618072043e-05
1.79	6.49901371134e-05
1.8	5.66729669432e-05
1.81	4.93763930389e-05
1.82	4.29811453815e-05
1.83	3.73811027956e-05
1.84	3.2481944656e-05
1.85	2.81999282475e-05
1.86	2.44607815924e-05
1.87	2.11987022029e-05
1.88	1.83554528448e-05
1.89	1.58795459995e-05
1.9	1.37255092937e-05
1.91	1.18532247247e-05
1.92	1.02273350346e-05
1.93	8.81671109669e-06
1.94	7.59397464914e-06
1.95	6.53507116588e-06
1.96	5.61888807513e-06
1.97	4.82691393568e-06
1.98	4.14293455163e-06
1.99	3.5527623542e-06
2.0	3.04399570134e-06
2.01	2.60580504631e-06
2.02	2.2287432035e-06
2.03	1.90457719652e-06
2.04	1.62613941008e-06
2.05	1.38719598443e-06
2.06	1.18233059137e-06
2.07	1.0068419132e-06
2.08	8.56653313828e-07
2.09	7.28233343467e-07
2.1	6.1852585777e-07
2.11	5.24888658463e-07
2.12	4.45039677373e-07
2.13	3.77009829682e-07
2.14	3.19101756231e-07
2.15	2.69853759604e-07
2.16	2.28008315195e-07
2.17	1.92484607309e-07
2.18	1.62354602195e-07
2.19	1.36822225386e-07
2.2	1.15205260376e-07
2.21	9.69196301188e-08
2.22	8.14657624643e-08
2.23	6.84167760264e-08
2.24	5.74082544347e-08
2.25	4.81294049056e-08
2.26	4.0315421893e-08
2.27	3.37408985894e-08
2.28	2.8214148522e-08
2.29	2.35723167026e-08
2.3	1.96771749849e-08
2.31	1.641150967e-08
2.32	1.36760211887e-08
2.33	1.13866660499e-08
2.34	9.47238033569e-09
2.35	7.87313199918e-09
2.36	6.53825619842e-09
2.37	5.42503400544e-09
2.38	4.49748015698e-09
2.39	3.72531016292e-09
2.4	3.08306113622e-09
2.41	2.54934423079e-09
2.42	2.10620963344e-09
2.43	1.73860771149e-09
2.44	1.43393221924e-09
2.45	1.18163345832e-09
2.46	9.72891009665e-10
2.47	8.00337141865e-10
2.48	6.57823283488e-10
2.49	5.4022305211e-10
2.5	4.43266283425e-10
2.51	3.63399321044e-10
2.52	2.97667528921e-10
2.53	2.4361658978e-10
2.54	1.99209667886e-10
2.55	1.62757955056e-10
2.56	1.32862495206e-10
2.57	1.08365503941e-10
2.58	8.83096735368e-11
2.59	7.19041868082e-11
2.6	5.84963616689e-11
2.61	4.75480166531e-11
2.62	3.86157906318e-11
2.63	3.13347711358e-11
2.64	2.54048883051e-11
2.65	2.05796182565e-11
2.66	1.66566129808e-11
2.67	1.34699357429e-11
2.68	1.08836331142e-11
2.69	8.78641867868e-12
2.7	7.08728039593e-12
2.71	5.71185463431e-12
2.72	4.59943594099e-12
2.73	3.70051345072e-12
2.74	2.97474312678e-12
2.75	2.38928032774e-12
2.76	1.91740998149e-12
2.77	1.53742232223e-12
2.78	1.23169104863e-12
2.79	9.85918176642e-13
2.8	7.88516031787e-13
2.81	6.30101955366e-13
2.82	5.03085559109e-13
2.83	4.01331896364e-13
2.84	3.198868463e-13
2.85	2.54753431618e-13
2.86	2.02709794853e-13
2.87	1.61161214265e-13
2.88	1.28019906901e-13
2.89	1.0160749291e-13
2.9	8.05759229789e-14
2.91	6.38434339966e-14
2.92	5.05427253027e-14
2.93	3.99790628962e-14
2.94	3.15964413297e-14
2.95	2.49502790938e-14
2.96	1.9685406542e-14
2.97	1.55183370166e-14
2.98	1.22230010184e-14
2.99	9.61927764274e-15
3.0	7.56378335139e-15
3.01	5.9424806362e-15
3.02	4.66475250996e-15
3.03	3.65865652445e-15
3.04	2.86712703627e-15
3.05	2.24493906901e-15
3.06	1.7562832826e-15
3.07	1.37283083434e-15
3.08	1.07219058959e-15
3.09	8.36680265663e-16
3.1	6.52348529192e-16
3.11	5.0819751317e-16
3.12	3.9556524575e-16
3.13	3.07635550483e-16
3.14	2.39049463543e-16
3.15	1.85597422429e-16
3.16	1.43975660052e-16
3.17	1.11593588157e-16
3.18	8.64216366406e-17
3.19	6.68711614676e-17
3.2	5.16997490508e-17
3.21	3.99366144695e-17
3.22	3.08238832828e-17
3.23	2.3770417211e-17
3.24	1.8315536993e-17
3.25	1.41005469327e-17
3.26	1.0846403625e-17
3.27	8.33621902107e-18
3.28	6.40156371992e-18
3.29	4.911754818e-18
3.3	3.76548556265e-18
3.31	2.88429078351e-18
3.32	2.20745009581e-18
3.33	1.68801612288e-18
3.34	1.28972220813e-18
3.35	9.8457704062e-19
3.36	7.50995293118e-19
3.37	5.72346137946e-19
3.38	4.35827243646e-19
3.39	3.31592053347e-19
3.4	2.52073980788e-19
3.41	1.91463562934e-19
3.42	1.45304313743e-19
3.43	1.10180611223e-19
3.44	8.34768761169e-20
3.45	6.31919248164e-20
3.46	4.77959839572e-20
3.47	3.6120661758e-20
3.48	2.72743557435e-20
3.49	2.0577274706e-20
3.5	1.55115716538e-20
3.51	1.16831078346e-20
3.52	8.79216118652e-21
3.53	6.61100692168e-21
3.54	4.9667732826e-21
3.55	3.72834295072e-21
3.56	2.79635435156e-21
3.57	2.09557604315e-21
3.58	1.56909614391e-21
3.59	1.17389872963e-21
3.6	8.77499131238e-22
3.61	6.55386935806e-22
3.62	4.89084528234e-22
3.63	3.64674306029e-22
3.64	2.71682420945e-22
3.65	2.02233491938e-22
3.66	1.50411079382e-22
3.67	1.1177426307e-22
3.68	8.29925441655e-23
3.69	6.1570354183e-23
3.7	4.5639362645e-23
3.71	3.38020367522e-23
3.72	2.5013909965e-23
3.73	1.84950599269e-23
3.74	1.36636077134e-23
3.75	1.00858044032e-23
3.76	7.43860069035e-24
3.77	5.48160239845e-24
3.78	4.03607687603e-24
3.79	2.96925142575e-24
3.8	2.18258012016e-24
3.81	1.60298377275e-24
3.82	1.17631544029e-24
3.83	8.62490343511e-25
3.84	6.31859454719e-25
3.85	4.62511535903e-25
3.86	3.38267687794e-25
3.87	2.47191968047e-25
3.88	1.8048624956e-25
3.89	1.31670911103e-25
3.9	9.59779667328e-26
3.91	6.99019455932e-26
3.92	5.0867808207e-26
3.93	3.6985616189e-26
3.94	2.68694509797e-26
3.95	1.95038728009e-26
3.96	1.41455251997e-26
3.97	1.02506990459e-26
3.98	7.42205388248e-27
3.99	5.3694643569e-27
4.0	3.88127212595e-27
4.01	2.80319634736e-27
4.02	2.02287602278e-27
4.03	1.4585501442e-27
4.04	1.05077525926e-27
4.05	7.5637073243e-28
4.06	5.43996394781e-28
4.07	3.90925303958e-28
4.08	2.80690700559e-28
4.09	2.01371856052e-28
4.1	1.44346432101e-28
4.11	1.03383181189e-28
4.12	7.39827230521e-29
4.13	5.28989851278e-29
4.14	3.77920978395e-29
4.15	2.69768549721e-29
4.16	1.92405868968e-29
4.17	1.37114068831e-29
4.18	9.7629811647e-30
4.19	6.94575783592e-30
4.2	4.9373464297e-30
4.21	3.50674643559e-30
4.22	2.48858197804e-30
4.23	1.76455982151e-30
4.24	1.25013723557e-30
4.25	8.84944202753e-31
4.26	6.25908719721e-31
4.27	4.42326596255e-31
4.28	3.12328823778e-31
4.29	2.20352539874e-31
4.3	1.55332045297e-31
4.31	1.09405986798e-31
4.32	7.69942270075e-32
4.33	5.41392592095e-32
4.34	3.80367626489e-32
4.35	2.67012686995e-32
4.36	1.87282579344e-32
4.37	1.31250214604e-32
4.38	9.19051479433e-33
4.39	6.43008703961e-33
4.4	4.49501434909e-33
4.41	3.13965950214e-33
4.42	2.19114580728e-33
4.43	1.52790827727e-33
4.44	1.06453657572e-33
4.45	7.4107337461e-34
4.46	5.1546498668e-34
4.47	3.58240340855e-34
4.48	2.48763801813e-34
4.49	1.72598603776e-34
4.5	1.19653329254e-34
4.51	8.2879997816e-35
4.52	5.73603944365e-35
4.53	3.96654147973e-35
4.54	2.74062341063e-35
4.55	1.89201352468e-35
4.56	1.30507851113e-35
4.57	8.9946980424e-36
4.58	6.19404139621e-36
4.59	4.26186022667e-36
4.6	2.92996142705e-36
4.61	2.01262203442e-36
4.62	1.38133870439e-36
4.63	9.47274384035e-37
4.64	6.49066326741e-37
4.65	4.44365214204e-37
4.66	3.03968609651e-37
4.67	2.07756750803e-37
4.68	1.41879383878e-37
4.69	9.68102188518e-38
4.7	6.6002575964e-38
4.71	4.49612484389e-38
4.72	3.06022703181e-38
4.73	2.08116617176e-38
4.74	1.41415727225e-38
4.75	9.60122224988e-39
4.76	6.51318193084e-39
4.77	4.41466533939e-39
4.78	2.98978715166e-39
4.79	2.02311550552e-39
4.8	1.36785173244e-39
4.81	9.24049689854e-40
4.82	6.23719894303e-40
4.83	4.2065093002e-40
4.84	2.83460214556e-40
4.85	1.90853613151e-40
4.86	1.28394580549e-40
4.87	8.63040241969e-41
4.88	5.79633479676e-41
4.89	3.88968073096e-41
4.9	2.60802974661e-41
4.91	1.74722659884e-41
4.92	1.16956414596e-41
4.93	7.82234553327e-42
4.94	5.22742844263e-42
4.95	3.49041737907e-42
4.96	2.32865316106e-42
4.97	1.55228137655e-42
4.98	1.03388990402e-42
4.99	6.88044240783e-43
5.0	4.57505869037e-43
5.01	3.03959152952e-43
5.02	2.01777178759e-43
5.03	1.33834211042e-43
5.04	8.86952847194e-44
5.05	5.87316532873e-44
5.06	3.88581606201e-44
5.07	2.56880172327e-44
5.08	1.69674771938e-44
5.09	1.11980479561e-44
5.1	7.38423898586e-45
5.11	4.8652767572e-45
5.12	3.20293226062e-45
5.13	2.1068148405e-45
5.14	1.38466083366e-45
5.15	9.09282607062e-46
5.16	5.96613133436e-46
5.17	3.91133664757e-46
5.18	2.56209990163e-46
5.19	1.67689322398e-46
5.2	1.09661267106e-46
5.21	7.16538651222e-47
5.22	4.67804622242e-47
5.23	3.05160229048e-47
5.24	1.98897765802e-47
5.25	1.29530021749e-47
5.26	8.42848552468e-48
5.27	5.47983191289e-48
5.28	3.5597830123e-48
5.29	2.31056624293e-48
5.3	1.4984834217e-48
5.31	9.71010873785e-49
5.32	6.28687590657e-49
5.33	4.06709520199e-49
5.34	2.62889025042e-49
5.35	1.69784973665e-49
5.36	1.09563207354e-49
5.37	7.06429658414e-50
5.38	4.55105226934e-50
5.39	2.92949962229e-50
5.4	1.88414275186e-50
5.41	1.21080138036e-50
5.42	7.77446956263e-51
5.43	4.98778121878e-51
5.44	3.19729568937e-51
5.45	2.04784460428e-51
5.46	1.31053913535e-51
5.47	8.37995721923e-52
5.48	5.35392681287e-52
5.49	3.41776258355e-52
5.5	2.17996838062e-52
5.51	1.38930420759e-52
5.52	8.84674218576e-53
5.53	5.62870211275e-53
5.54	3.57826123346e-53
5.55	2.27287062629e-53
5.56	1.44250156602e-53
5.57	9.14738135787e-54
5.58	5.79583752365e-54
5.59	3.6692267756e-54
5.6	2.3209824184e-54
5.61	1.46692564837e-54
5.62	9.26367516766e-55
5.63	5.84517487016e-55
5.64	3.68511192713e-55
5.65	2.32136189733e-55
5.66	1.4610800937e-55
5.67	9.18849131348e-56
5.68	5.77368940197e-56
5.69	3.62494696828e-56
5.7	2.27399203576e-56
5.71	1.42532949521e-56
5.72	8.92648882924e-57
5.73	5.58579675087e-57
5.74	3.4924377294e-57
5.75	2.18178173557e-57
5.76	1.36186177337e-57
5.77	8.49364028175e-58
5.78	5.29290152481e-58
5.79	3.29558781519e-58
5.8	2.05027018641e-58
5.81	1.27446656687e-58
5.82	7.91562021632e-59
5.83	4.9122516945e-59
5.84	3.0458986067e-59
5.85	1.88707625991e-59
5.86	1.168160848e-59
5.87	7.22528590337e-60
5.88	4.46525875635e-60
5.89	2.75725820096e-60
5.9	1.70116901636e-60
5.91	1.04871316666e-60
5.92	6.45959388491e-61
5.93	3.97551095848e-61
5.94	2.4446683479e-61
5.95	1.5020562855e-61
5.96	9.22129116946e-62
5.97	5.65635349708e-62
5.98	3.46673494533e-62
5.99	2.12297084006e-62
6.0	1.29899273868e-62
#normalisation = 0.214285714286
#eerste moment n(k)k**2 = 0.158739721398
#2e moment n(k)k**2 = 0.129876454789
#3e moment n(k)k**2 = 0.115452692597
#4e moment n(k)k**2 = 0.110203570923
#sigma**2 n(k)k**2 = 0.10467815564
#kurtosis n(k)k**2 = 1.985344149
#skewness n(k)k**2 = 1.81893681426
