# mass number (A) = 16
# number of protons (Z) = 8
#units k = 1/fm , units n_1(k) = fm^3
# k (1/fm)	tot
0.0	0.0
0.01	0.00172787275479
0.02	0.00690531692312
0.03	0.0155138377883
0.04	0.0275227025738
0.05	0.0428890775357
0.06	0.0615582188247
0.07	0.0834637160604
0.08	0.10852778727
0.09	0.136661623563
0.1	0.167765781635
0.11	0.20173062196
0.12	0.238436790249
0.13	0.277755739566
0.14	0.319550290246
0.15	0.363675224603
0.16	0.409977913211
0.17	0.458298969404
0.18	0.508472928534
0.19	0.560328948363
0.2	0.613691526946
0.21	0.668381234248
0.22	0.724215453733
0.23	0.781009130129
0.24	0.838575519596
0.25	0.896726938545
0.26	0.955275507414
0.27	1.01403388578
0.28	1.0728159953
0.29	1.13143772705
0.3	1.18971763002
0.31	1.24747757759
0.32	1.3045434092
0.33	1.36074554419
0.34	1.4159195655
0.35	1.46990677076
0.36	1.5225546886
0.37	1.57371755841
0.38	1.62325677175
0.39	1.67104127406
0.4	1.71694792554
0.41	1.7608618201
0.42	1.80267656195
0.43	1.84229449919
0.44	1.87962691427
0.45	1.91459417147
0.46	1.94712582156
0.47	1.97716066418
0.48	2.00464676876
0.49	2.02954145477
0.5	2.0518112326
0.51	2.07143170621
0.52	2.08838743923
0.53	2.102671786
0.54	2.11428668944
0.55	2.12324244761
0.56	2.12955745111
0.57	2.13325789325
0.58	2.13437745544
0.59	2.13295696991
0.6	2.12904406218
0.61	2.12269277562
0.62	2.11396318049
0.63	2.10292096989
0.64	2.08963704491
0.65	2.07418709148
0.66	2.05665115111
0.67	2.0371131879
0.68	2.01566065395
0.69	1.99238405537
0.7	1.96737652093
0.71	1.94073337533
0.72	1.91255171894
0.73	1.88293001578
0.74	1.85196769137
0.75	1.81976474207
0.76	1.7864213572
0.77	1.75203755527
0.78	1.71671283551
0.79	1.68054584568
0.8	1.6436340671
0.81	1.60607351753
0.82	1.56795847283
0.83	1.52938120749
0.84	1.49043175483
0.85	1.45119768684
0.86	1.41176391396
0.87	1.37221250477
0.88	1.33262252553
0.89	1.29306989942
0.9	1.25362728516
0.91	1.21436397469
0.92	1.17534580951
0.93	1.13663511499
0.94	1.0982906523
0.95	1.06036758711
0.96	1.02291747444
0.97	0.985988258951
0.98	0.949624289727
0.99	0.913866348901
1.0	0.878751693132
1.01	0.844314107111
1.02	0.810583968185
1.03	0.777588321202
1.04	0.745350962659
1.05	0.71389253325
1.06	0.683230617923
1.07	0.653379852555
1.08	0.624352036364
1.09	0.596156249231
1.1	0.568798973091
1.11	0.542284216597
1.12	0.516613642301
1.13	0.491786695606
1.14	0.467800734799
1.15	0.444651161507
1.16	0.422331550945
1.17	0.400833781381
1.18	0.380148162278
1.19	0.360263560608
1.2	0.341167524887
1.21	0.322846406504
1.22	0.30528547798
1.23	0.288469047813
1.24	0.272380571619
1.25	0.257002759311
1.26	0.242317678092
1.27	0.228306851089
1.28	0.214951351474
1.29	0.202231891957
1.3	0.19012890957
1.31	0.178622645695
1.32	0.167693221293
1.33	0.157320707361
1.34	0.14748519062
1.35	0.138166834494
1.36	0.129345935447
1.37	0.121002974759
1.38	0.113118665856
1.39	0.105673997298
1.4	0.0986502715702
1.41	0.0920291398124
1.42	0.0857926326425
1.43	0.0799231872327
1.44	0.0744036708071
1.45	0.0692174007327
1.46	0.06434816138
1.47	0.0597802179304
1.48	0.0554983273118
1.49	0.0514877464402
1.5	0.0477342379478
1.51	0.0442240735729
1.52	0.0409440353877
1.53	0.0378814150325
1.54	0.0350240111248
1.55	0.0323601250049
1.56	0.0298785549736
1.57	0.0275685891743
1.58	0.025419997264
1.59	0.0234230210118
1.6	0.0215683639573
1.61	0.019847180254
1.62	0.0182510628162
1.63	0.016772030882
1.64	0.0154025170958
1.65	0.0141353542089
1.66	0.0129637614893
1.67	0.0118813309248
1.68	0.0108820132972
1.69	0.00996010419943
1.7	0.00911023005966
1.71	0.00832733423287
1.72	0.0076066632123
1.73	0.00694375300901
1.74	0.00633441574201
1.75	0.0057747264765
1.76	0.00526101034295
1.77	0.00478982996544
1.78	0.00435797322317
1.79	0.00396244136541
1.8	0.00360043749636
1.81	0.00326935544296
1.82	0.00296676901559
1.83	0.00269042166873
1.84	0.00243821656609
1.85	0.00220820705196
1.86	0.00199858752893
1.87	0.00180768473969
1.88	0.00163394944902
1.89	0.00147594852072
1.9	0.00133235738257
1.91	0.00120195287146
1.92	0.00108360644963
1.93	0.00097627778235
1.94	0.000879008666299
1.95	0.000790917297649
1.96	0.000711192868191
1.97	0.000639090477546
1.98	0.000573926349282
1.99	0.000515073338543
2.0	0.000461956718779
2.01	0.000414050235113
2.02	0.000370872412007
2.03	0.000331983102959
2.04	0.000296980270191
2.05	0.000265496982482
2.06	0.000237198619581
2.07	0.000211780271924
2.08	0.000188964324703
2.09	0.000168498215694
2.1	0.000150152356604
2.11	0.00013371820807
2.12	0.00011900649886
2.13	0.000105845580181
2.14	9.40799064428e-05
2.15	8.35686341753e-05
2.16	7.41843312402e-05
2.17	6.58117888425e-05
2.18	5.83469292433e-05
2.19	5.16958024567e-05
2.2	4.57736655813e-05
2.21	4.05041387777e-05
2.22	3.58184322566e-05
2.23	3.1654638976e-05
2.24	2.79570880727e-05
2.25	2.46757543694e-05
2.26	2.17657195937e-05
2.27	1.91866812357e-05
2.28	1.69025052413e-05
2.29	1.48808190018e-05
2.3	1.30926413418e-05
2.31	1.1512046447e-05
2.32	1.0115858889e-05
2.33	8.88337711753e-06
2.34	7.79612298131e-06
2.35	6.83761502829e-06
2.36	5.99316350563e-06
2.37	5.24968514307e-06
2.38	4.59553595484e-06
2.39	4.02036043645e-06
2.4	3.51495566482e-06
2.41	3.07114893268e-06
2.42	2.68168766244e-06
2.43	2.34014045046e-06
2.44	2.04080819066e-06
2.45	1.77864431736e-06
2.46	1.54918329083e-06
2.47	1.34847652661e-06
2.48	1.17303504099e-06
2.49	1.01977815048e-06
2.5	8.85987623746e-07
2.51	7.69266739606e-07
2.52	6.67503755735e-07
2.53	5.7883933906e-07
2.54	5.01637551524e-07
2.55	4.34460023743e-07
2.56	3.76042984575e-07
2.57	3.25276846982e-07
2.58	2.81188080056e-07
2.59	2.42923123839e-07
2.6	2.09734127944e-07
2.61	1.80966317081e-07
2.62	1.56046806613e-07
2.63	1.34474709429e-07
2.64	1.15812391806e-07
2.65	9.96777508055e-08
2.66	8.57373990991e-08
2.67	7.37006552226e-08
2.68	6.33142481289e-08
2.69	5.43576547006e-08
2.7	4.66389976916e-08
2.71	3.99914394741e-08
2.72	3.42700140654e-08
2.73	2.93488462698e-08
2.74	2.51187124716e-08
2.75	2.14849027111e-08
2.76	1.83653482348e-08
2.77	1.56889827819e-08
2.78	1.33943094988e-08
2.79	1.14281486117e-08
2.8	9.74454387179e-09
2.81	8.30380834856e-09
2.82	7.07169243244e-09
2.83	6.01865892803e-09
2.84	5.1192519194e-09
2.85	4.35154768069e-09
2.86	3.69667731639e-09
2.87	3.13841206456e-09
2.88	2.66280330006e-09
2.89	2.2578702503e-09
2.9	1.91332929693e-09
2.91	1.6203594956e-09
2.92	1.37139961531e-09
2.93	1.15997258724e-09
2.94	9.80533771005e-10
2.95	8.28339901493e-10
2.96	6.99335978923e-10
2.97	5.90057715501e-10
2.98	4.97547459366e-10
2.99	4.1928178572e-10
3.0	3.53109180606e-10
3.01	2.97196448823e-10
3.02	2.49982657399e-10
3.03	2.10139583184e-10
3.04	1.76537770133e-10
3.05	1.48217421305e-10
3.06	1.24363454567e-10
3.07	1.04284141525e-10
3.08	8.73928278402e-11
3.09	7.31923014447e-11
3.1	6.12614345046e-11
3.11	5.12437763984e-11
3.12	4.28378195909e-11
3.13	3.57886988763e-11
3.14	2.98811178723e-11
3.15	2.49333255273e-11
3.16	2.07919903485e-11
3.17	1.73278415963e-11
3.18	1.44319652598e-11
3.19	1.20126586392e-11
3.2	9.99276114386e-12
3.21	8.30739077477e-12
3.22	6.90202596258e-12
3.23	5.73088119037e-12
3.24	4.75553235558e-12
3.25	3.94375427666e-12
3.26	3.26853828169e-12
3.27	2.70726255349e-12
3.28	2.24099196022e-12
3.29	1.85388756795e-12
3.3	1.53270899496e-12
3.31	1.26639529728e-12
3.32	1.04571223453e-12
3.33	8.62955605172e-13
3.34	7.11701909087e-13
3.35	5.86598929997e-13
3.36	4.83189966345e-13
3.37	3.97766404428e-13
3.38	3.27244147767e-13
3.39	2.6906011268e-13
3.4	2.21085590398e-13
3.41	1.8155377639e-13
3.42	1.48999191291e-13
3.43	1.22207076411e-13
3.44	1.00171150043e-13
3.45	8.20583670167e-14
3.46	6.71795403287e-14
3.47	5.49648662108e-14
3.48	4.49435479665e-14
3.49	3.67268435685e-14
3.5	2.99939712121e-14
3.51	2.44803988812e-14
3.52	1.99681212104e-14
3.53	1.62775918055e-14
3.54	1.32610336502e-14
3.55	1.07968959113e-14
3.56	8.78526375796e-15
3.57	7.14405988599e-15
3.58	5.80590329613e-15
3.59	4.71551333325e-15
3.6	3.82756576952e-15
3.61	3.10492339491e-15
3.62	2.51717666681e-15
3.63	2.03944088682e-15
3.64	1.65136547084e-15
3.65	1.33631845613e-15
3.66	1.08071569558e-15
3.67	8.7346943425e-16
3.68	7.05535322368e-16
3.69	5.69540538973e-16
3.7	4.59478704823e-16
3.71	3.70459754693e-16
3.72	2.98505004018e-16
3.73	2.40379354849e-16
3.74	1.93454001163e-16
3.75	1.55594163872e-16
3.76	1.25067352951e-16
3.77	1.00468452796e-16
3.78	8.06585859606e-17
3.79	6.47152539723e-17
3.8	5.18917018059e-17
3.81	4.15838214553e-17
3.82	3.33032135757e-17
3.83	2.66552757856e-17
3.84	2.13213913523e-17
3.85	1.70444604335e-17
3.86	1.36171542976e-17
3.87	1.08723863055e-17
3.88	8.67558634784e-18
3.89	6.91844151178e-18
3.9	5.5138280175e-18
3.91	4.3917103828e-18
3.92	3.49582538909e-18
3.93	2.78100240591e-18
3.94	2.21099936668e-18
3.95	1.75675630738e-18
3.96	1.39498681496e-18
3.97	1.10704274516e-18
3.98	8.77999789004e-19
3.99	6.95921404784e-19
4.0	5.51266709385e-19
4.01	4.36414483065e-19
4.02	3.45280766059e-19
4.03	2.73011844066e-19
4.04	2.15737919955e-19
4.05	1.70375604266e-19
4.06	1.34469651912e-19
4.07	1.06066228809e-19
4.08	8.36114925883e-20
4.09	6.58704836071e-20
4.1	5.18623008549e-20
4.11	4.08083266033e-20
4.12	3.20908998746e-20
4.13	2.52203513542e-20
4.14	1.98087249801e-20
4.15	1.55488433945e-20
4.16	1.21976413103e-20
4.17	9.56290524869e-21
4.18	7.49273024325e-21
4.19	5.86714221746e-21
4.2	4.59144547471e-21
4.21	3.59094346751e-21
4.22	2.80675205456e-21
4.23	2.19248130046e-21
4.24	1.71160732868e-21
4.25	1.33539206169e-21
4.26	1.04123768824e-21
4.27	8.11385845226e-22
4.28	6.31889961533e-22
4.29	4.91803922639e-22
4.3	3.82541931319e-22
4.31	2.97373764918e-22
4.32	2.31027046275e-22
4.33	1.79374040385e-22
4.34	1.39185171222e-22
4.35	1.07935169767e-22
4.36	8.36507125325e-23
4.37	6.47907468391e-23
4.38	5.0152550533e-23
4.39	3.87980393984e-23
4.4	2.99959950511e-23
4.41	2.31768027857e-23
4.42	1.78970131074e-23
4.43	1.38116125244e-23
4.44	1.06523403715e-23
4.45	8.21074421008e-24
4.46	6.32494668874e-24
4.47	4.869317511e-24
4.48	3.74641787715e-24
4.49	2.88072138955e-24
4.5	2.21372277928e-24
4.51	1.70013013894e-24
4.52	1.30490253069e-24
4.53	1.00094675041e-24
4.54	7.6732771877e-25
4.55	5.87878842805e-25
4.56	4.50123641695e-25
4.57	3.4443944824e-25
4.58	2.63409256166e-25
4.59	2.01319704024e-25
4.6	1.53772493509e-25
4.61	1.17383801577e-25
4.62	8.95519077103e-26
4.63	6.82776695174e-26
4.64	5.20259152937e-26
4.65	3.96184956033e-26
4.66	3.01518149685e-26
4.67	2.29332805198e-26
4.68	1.74323593429e-26
4.69	1.32429102352e-26
4.7	1.00542110424e-26
4.71	7.62868832248e-27
4.72	5.78480969091e-27
4.73	4.38395034668e-27
4.74	3.32031692993e-27
4.75	2.51322188046e-27
4.76	1.90116372702e-27
4.77	1.43729401998e-27
4.78	1.08594828847e-27
4.79	8.1999294371e-28
4.8	6.18797491506e-28
4.81	4.66685651933e-28
4.82	3.51753027475e-28
4.83	2.64965143351e-28
4.84	1.99469807556e-28
4.85	1.50073195147e-28
4.86	1.12840926094e-28
4.87	8.47945075138e-29
4.88	6.36804883408e-29
4.89	4.77950198031e-29
4.9	3.58506074873e-29
4.91	2.68749719625e-29
4.92	2.01343290839e-29
4.93	1.50752305321e-29
4.94	1.1280502158e-29
4.95	8.43588381079e-30
4.96	6.30478739342e-30
4.97	4.70920956153e-30
4.98	3.51530746753e-30
4.99	2.62250520605e-30
5.0	1.95527189589e-30
5.01	1.45692007532e-30
5.02	1.08493090797e-30
5.03	8.07432514707e-31
5.04	6.00548654803e-31
5.05	4.46403908533e-31
5.06	3.31623743515e-31
5.07	2.46207398397e-31
5.08	1.82681448546e-31
5.09	1.35464554587e-31
5.1	1.00391002828e-31
5.11	7.43535685852e-32
5.12	5.50359871492e-32
5.13	4.07126747331e-32
5.14	3.00988882783e-32
5.15	2.22386915748e-32
5.16	1.64212411391e-32
5.17	1.21182723348e-32
5.18	8.93744604928e-33
5.19	6.58755366412e-33
5.2	4.85258240771e-33
5.21	3.57239691351e-33
5.22	2.62835810816e-33
5.23	1.932624252e-33
5.24	1.42019632031e-33
5.25	1.04300747919e-33
5.26	7.65534126847e-34
5.27	5.61538832648e-34
5.28	4.11654769189e-34
5.29	3.01595347054e-34
5.3	2.20828063479e-34
5.31	1.61592813952e-34
5.32	1.18175646808e-34
5.33	8.63718274123e-35
5.34	6.3089112219e-35
5.35	4.60548023638e-35
5.36	3.35995638663e-35
5.37	2.44979971063e-35
5.38	1.78511315651e-35
5.39	1.29998747109e-35
5.4	9.461300534e-36
5.41	6.88177985033e-36
5.42	5.00252180241e-36
5.43	3.63425580741e-36
5.44	2.63864093242e-36
5.45	1.91462359782e-36
5.46	1.38843272106e-36
5.47	1.00624701322e-36
5.48	7.28824075727e-37
5.49	5.27568879715e-37
5.5	3.81657667233e-37
5.51	2.7593525201e-37
5.52	1.99378703183e-37
5.53	1.4397554827e-37
5.54	1.03905161059e-37
5.55	7.49417643872e-38
5.56	5.40193224438e-38
5.57	3.89146193606e-38
5.58	2.80165649526e-38
5.59	2.0158371347e-38
5.6	1.44955420986e-38
5.61	1.04172229036e-38
5.62	7.48183175286e-39
5.63	5.37034780745e-39
5.64	3.85243565587e-39
5.65	2.76189324933e-39
5.66	1.97886837237e-39
5.67	1.41698567533e-39
5.68	1.01403409042e-39
5.69	7.25234079927e-40
5.7	5.1837305015e-40
5.71	3.70292739793e-40
5.72	2.64354410325e-40
5.73	1.88610781173e-40
5.74	1.34488474313e-40
5.75	9.58389900689e-41
5.76	6.82555559212e-41
5.77	4.85816672268e-41
5.78	3.45577499257e-41
5.79	2.45672839456e-41
5.8	1.74545030019e-41
5.81	1.23935719428e-41
5.82	8.79476357159e-42
5.83	6.23721229508e-42
5.84	4.42074610816e-42
5.85	3.13140556069e-42
5.86	2.21677579421e-42
5.87	1.56834981957e-42
5.88	1.1089266744e-42
5.89	7.83612680054e-43
5.9	5.53399574556e-43
5.91	3.90584438843e-43
5.92	2.75505206577e-43
5.93	1.94215305041e-43
5.94	1.36828279729e-43
5.95	9.63400939854e-44
5.96	6.77917829259e-44
5.97	4.76744669783e-44
5.98	3.3506837868e-44
5.99	2.35353064936e-44
6.0	1.65213334529e-44
#normalisation = 0.75
#eerste moment n(k)k**2 = 0.65375924641
#2e moment n(k)k**2 = 0.629400150045
#3e moment n(k)k**2 = 0.658361868455
#4e moment n(k)k**2 = 0.739469824571
#sigma**2 n(k)k**2 = 0.201998997779
#kurtosis n(k)k**2 = -0.944983775703
#skewness n(k)k**2 = -0.189803807143
