# mass number (A) = 16
# number of protons (Z) = 8
#units k = 1/fm , units n_1(k) = fm^3
# k (1/fm)	tot
0.0	2.90092638808
0.01	2.900062323
0.02	2.89747167168
0.03	2.89315906125
0.04	2.88713218827
0.05	2.87940179587
0.06	2.86998164184
0.07	2.85888845778
0.08	2.84614189967
0.09	2.83176448974
0.1	2.81578155023
0.11	2.79822112904
0.12	2.77911391776
0.13	2.75849316227
0.14	2.73639456636
0.15	2.71285618884
0.16	2.68791833427
0.17	2.66162343814
0.18	2.63401594661
0.19	2.6051421915
0.2	2.57505026094
0.21	2.5437898662
0.22	2.5114122052
0.23	2.47796982326
0.24	2.44351647157
0.25	2.40810696393
0.26	2.37179703235
0.27	2.33464318194
0.28	2.29670254563
0.29	2.25803273936
0.3	2.21869171805
0.31	2.17873763306
0.32	2.13822869138
0.33	2.09722301729
0.34	2.05577851667
0.35	2.01395274464
0.36	1.97180277666
0.37	1.92938508379
0.38	1.88675541219
0.39	1.84396866733
0.4	1.80107880325
0.41	1.75813871708
0.42	1.71520014902
0.43	1.6723135882
0.44	1.6295281844
0.45	1.58689166591
0.46	1.5444502637
0.47	1.50224864186
0.48	1.46032983454
0.49	1.4187351894
0.5	1.37750431751
0.51	1.3366750498
0.52	1.29628340001
0.53	1.25636353398
0.54	1.21694774538
0.55	1.17806643756
0.56	1.13974811161
0.57	1.10201936029
0.58	1.06490486778
0.59	1.02842741504
0.6	0.992607890511
0.61	0.957465306082
0.62	0.923016817893
0.63	0.889277751898
0.64	0.856261633858
0.65	0.823980223495
0.66	0.792443552557
0.67	0.761659966512
0.68	0.731636169572
0.69	0.702377272783
0.7	0.67388684488
0.71	0.646166965618
0.72	0.619218281312
0.73	0.593040062278
0.74	0.567630261907
0.75	0.542985577105
0.76	0.519101509818
0.77	0.495972429379
0.78	0.473591635439
0.79	0.451951421217
0.8	0.431043136854
0.81	0.410857252622
0.82	0.391383421798
0.83	0.37261054298
0.84	0.354526821663
0.85	0.337119830899
0.86	0.320376570858
0.87	0.304283527158
0.88	0.288826727798
0.89	0.273991798583
0.9	0.259764016915
0.91	0.246128363846
0.92	0.23306957431
0.93	0.22057218543
0.94	0.208620582873
0.95	0.197199045149
0.96	0.18629178585
0.97	0.175882993765
0.98	0.165956870871
0.99	0.156497668162
1.0	0.147489719336
1.01	0.138917472326
1.02	0.130765518698
1.03	0.123018620929
1.04	0.115661737607
1.05	0.108680046571
1.06	0.102058966046
1.07	0.0957841738108
1.08	0.0898416244555
1.09	0.0842175647878
1.1	0.07889854744
1.11	0.0738714427495
1.12	0.0691234489753
1.13	0.0646421009225
1.14	0.0604152770439
1.15	0.0564312050955
1.16	0.0526784664157
1.17	0.049145998908
1.18	0.0458230987986
1.19	0.0426994212467
1.2	0.0397649798805
1.21	0.0370101453353
1.22	0.0344256428643
1.23	0.0320025490959
1.24	0.0297322880067
1.25	0.0276066261798
1.26	0.0256176674141
1.27	0.0237578467492
1.28	0.0220199239697
1.29	0.0203969766467
1.3	0.018882392775
1.31	0.0174698630619
1.32	0.0161533729176
1.33	0.0149271941987
1.34	0.0137858767514
1.35	0.0127242397969
1.36	0.0117373632033
1.37	0.0108205786804
1.38	0.0099694609344
1.39	0.0091798188162
1.4	0.00844768649365
1.41	0.00776931467652
1.42	0.00714116191999
1.43	0.00655988603014
1.44	0.00602233559284
1.45	0.00552554164495
1.46	0.00506670950493
1.47	0.00464321077763
1.48	0.0042525755463
1.49	0.00389248476315
1.5	0.0035607628476
1.51	0.00325537050041
1.52	0.00297439773967
1.53	0.00271605716381
1.54	0.002478677445
1.55	0.00226069705541
1.56	0.00206065822743
1.57	0.00187720114816
1.58	0.00170905838724
1.59	0.00155504955652
1.6	0.00141407619906
1.61	0.00128511690442
1.62	0.00116722264644
1.63	0.00105951233931
1.64	0.000961168607098
1.65	0.00087143376162
1.66	0.000789605983116
1.67	0.000715035697878
1.68	0.000647122146831
1.69	0.000585310138776
1.7	0.000529086981915
1.71	0.000477979587169
1.72	0.00043155173672
1.73	0.000389401511199
1.74	0.000351158868937
1.75	0.000316483370734
1.76	0.000285062043668
1.77	0.000256607377526
1.78	0.000230855447591
1.79	0.000207564157584
1.8	0.000186511596744
1.81	0.000167494505162
1.82	0.00015032684165
1.83	0.000134838448604
1.84	0.000120873808486
1.85	0.000108290886766
1.86	9.69600563138e-05
1.87	8.67630984696e-05
1.88	7.75922761715e-05
1.89	6.93494747552e-05
1.9	6.19454062053e-05
1.91	5.52988728484e-05
1.92	4.933608666e-05
1.93	4.39900405521e-05
1.94	3.91999281865e-05
1.95	3.49106090424e-05
1.96	3.10721156428e-05
1.97	2.7639200011e-05
1.98	2.45709165971e-05
1.99	2.18302390723e-05
2.0	1.93837085409e-05
2.01	1.72011108706e-05
2.02	1.525518098e-05
2.03	1.35213320595e-05
2.04	1.19774078315e-05
2.05	1.06034560768e-05
2.06	9.38152177429e-06
2.07	8.29545831023e-06
2.08	7.33075532059e-06
2.09	6.47438182828e-06
2.1	5.71464343319e-06
2.11	5.04105240064e-06
2.12	4.44420957865e-06
2.13	3.91569715283e-06
2.14	3.44798132188e-06
2.15	3.03432404624e-06
2.16	2.6687030872e-06
2.17	2.3457396149e-06
2.18	2.06063272005e-06
2.19	1.80910021743e-06
2.2	1.58732517824e-06
2.21	1.39190767451e-06
2.22	1.21982126108e-06
2.23	1.06837376024e-06
2.24	9.35171950882e-07
2.25	8.18089797667e-07
2.26	7.1523988713e-07
2.27	6.24947766557e-07
2.28	5.45728908127e-07
2.29	4.76268045361e-07
2.3	4.15400651546e-07
2.31	3.6209635057e-07
2.32	3.15444069688e-07
2.33	2.74638761232e-07
2.34	2.38969536329e-07
2.35	2.07809068345e-07
2.36	1.80604137206e-07
2.37	1.56867198003e-07
2.38	1.36168868466e-07
2.39	1.1813124009e-07
2.4	1.02421926983e-07
2.41	8.87487749426e-08
2.42	7.68551609461e-08
2.43	6.65158202238e-08
2.44	5.75331443795e-08
2.45	4.9733899774e-08
2.46	4.2966320563e-08
2.47	3.70975354754e-08
2.48	3.20112916583e-08
2.49	2.76059427397e-08
2.5	2.37926717152e-08
2.51	2.04939223751e-08
2.52	1.76420157897e-08
2.53	1.51779308891e-08
2.54	1.3050230442e-08
2.55	1.12141157661e-08
2.56	9.63059533345e-09
2.57	8.26575406326e-09
2.58	7.09011156294e-09
2.59	6.07805888777e-09
2.6	5.20736456007e-09
2.61	4.45874163616e-09
2.62	3.81546854288e-09
2.63	3.26305723823e-09
2.64	2.78896299279e-09
2.65	2.38233074881e-09
2.66	2.03377360158e-09
2.67	1.73517946969e-09
2.68	1.47954248431e-09
2.69	1.26081603902e-09
2.7	1.0737848064e-09
2.71	9.1395335051e-10
2.72	7.77449250101e-10
2.73	6.60938900593e-10
2.74	5.61554385728e-10
2.75	4.76830007363e-10
2.76	4.04647235686e-10
2.77	3.43186995512e-10
2.78	2.90888339399e-10
2.79	2.46412677157e-10
2.8	2.08612835885e-10
2.81	1.7650631647e-10
2.82	1.49252193151e-10
2.83	1.26131173482e-10
2.84	1.06528398009e-10
2.85	8.99186133384e-11
2.86	7.58533997622e-11
2.87	6.39501762181e-11
2.88	5.38827416601e-11
2.89	4.53731436588e-11
2.9	3.81846927174e-11
2.91	3.21159649243e-11
2.92	2.69956565851e-11
2.93	2.26781727749e-11
2.94	1.90398476744e-11
2.95	1.59757083838e-11
2.96	1.33967059309e-11
2.97	1.12273476152e-11
2.98	9.40367387595e-12
2.99	7.871530709e-12
3.0	6.58509544461e-12
3.01	5.50561956953e-12
3.02	4.60035735496e-12
3.03	3.84165343808e-12
3.04	3.20616629186e-12
3.05	2.67420778525e-12
3.06	2.22918185213e-12
3.07	1.85710771321e-12
3.08	1.546215184e-12
3.09	1.28660139746e-12
3.1	1.06993981462e-12
3.11	8.89233721847e-13
3.12	7.38607551998e-13
3.13	6.13130342392e-13
3.14	5.08666479299e-13
3.15	4.21749594773e-13
3.16	3.49476094779e-13
3.17	2.89415321762e-13
3.18	2.39533802723e-13
3.19	1.98131416423e-13
3.2	1.6378763967e-13
3.21	1.35316310986e-13
3.22	1.11727587065e-13
3.23	9.21959693178e-14
3.24	7.60334496303e-14
3.25	6.26669704702e-14
3.26	5.161951861e-14
3.27	4.24942770718e-14
3.28	3.49613492963e-14
3.29	2.87466453177e-14
3.3	2.36225839339e-14
3.31	1.94003192164e-14
3.32	1.59232456892e-14
3.33	1.30615753863e-14
3.34	1.07078128382e-14
3.35	8.77298176714e-15
3.36	7.18348066227e-15
3.37	5.87846412619e-15
3.38	4.80766349699e-15
3.39	3.92957423603e-15
3.4	3.20994933723e-15
3.41	2.62054790495e-15
3.42	2.13809635683e-15
3.43	1.743426684e-15
3.44	1.42076205307e-15
3.45	1.15712494043e-15
3.46	9.41847099533e-16
3.47	7.6616410269e-16
3.48	6.2288007737e-16
3.49	5.06090663793e-16
3.5	4.10954230887e-16
3.51	3.3350306635e-16
3.52	2.70487656808e-16
3.53	2.19248341608e-16
3.54	1.77609596416e-16
3.55	1.43793012637e-16
3.56	1.16345712399e-16
3.57	9.40814990399e-17
3.58	7.6032508468e-17
3.59	6.14095131579e-17
3.6	4.95693512273e-17
3.61	3.99882188471e-17
3.62	3.22397845362e-17
3.63	2.59772662801e-17
3.64	2.09187633363e-17
3.65	1.68352593842e-17
3.66	1.35408168046e-17
3.67	1.08845670243e-17
3.68	8.74417213613e-18
3.69	7.02049095187e-18
3.7	5.63323040192e-18
3.71	4.51740252182e-18
3.72	3.62043963307e-18
3.73	2.89984694319e-18
3.74	2.32129366695e-18
3.75	1.85706173795e-18
3.76	1.48478592714e-18
3.77	1.18643127984e-18
3.78	9.47463697471e-19
3.79	7.56177610578e-19
3.8	6.03151337077e-19
3.81	4.80806157089e-19
3.82	3.8304958054e-19
3.83	3.04986914792e-19
3.84	2.42688203782e-19
3.85	1.93000028413e-19
3.86	1.53393629505e-19
3.87	1.21842420831e-19
3.88	9.67232675995e-20
3.89	7.67369697635e-20
3.9	6.08442547717e-20
3.91	4.82142873458e-20
3.92	3.8183274754e-20
3.93	3.02212092718e-20
3.94	2.39051651788e-20
3.95	1.88978720668e-20
3.96	1.49305327798e-20
3.97	1.17890538384e-20
3.98	9.3030175827e-21
3.99	7.33685569966e-21
4.0	5.78278916003e-21
4.01	4.55518462568e-21
4.02	3.58604598839e-21
4.03	2.82141499743e-21
4.04	2.21849948029e-21
4.05	1.74338352307e-21
4.06	1.36920282932e-21
4.07	1.07469167259e-21
4.08	8.43026495909e-22
4.09	6.60906176089e-22
4.1	5.17820978621e-22
4.11	4.05471857846e-22
4.12	3.17309473029e-22
4.13	2.48168470262e-22
4.14	1.93977525336e-22
4.15	1.51529597763e-22
4.16	1.18300007257e-22
4.17	9.23024687918e-23
4.18	7.19752377365e-23
4.19	5.60911241412e-23
4.2	4.36864167907e-23
4.21	3.4004778537e-23
4.22	2.64529871938e-23
4.23	2.05660429106e-23
4.24	1.5979677072e-23
4.25	1.24087062736e-23
4.26	9.62999929781e-24
4.27	7.469082413e-24
4.28	5.78961243487e-24
4.29	4.48510875586e-24
4.3	3.47246365922e-24
4.31	2.68685163207e-24
4.32	2.07773859153e-24
4.33	1.60575533047e-24
4.34	1.24024956502e-24
4.35	9.57370496102e-25
4.36	7.38570981951e-25
4.37	5.69437005058e-25
4.38	4.38773487218e-25
4.39	3.37890758403e-25
4.4	2.60047986032e-25
4.41	2.00019308154e-25
4.42	1.5375582994e-25
4.43	1.18122466801e-25
4.44	9.06931881635e-26
4.45	6.95918008711e-26
4.46	5.33682210236e-26
4.47	4.09023840706e-26
4.48	3.13296658962e-26
4.49	2.39830354654e-26
4.5	1.83482133259e-26
4.51	1.40289335129e-26
4.52	1.07200491896e-26
4.53	8.1867239078e-27
4.54	6.24834146892e-27
4.55	4.76607214098e-27
4.56	3.63327033474e-27
4.57	2.76806356623e-27
4.58	2.10763620519e-27
4.59	1.6038231819e-27
4.6	1.2197155701e-27
4.61	9.27047301368e-28
4.62	7.04184506159e-28
4.63	5.34579476684e-28
4.64	4.05582625992e-28
4.65	3.07530113876e-28
4.66	2.33043610619e-28
4.67	1.76493207822e-28
4.68	1.33585720726e-28
4.69	1.01049303456e-28
4.7	7.63919956384e-29
4.71	5.77169843845e-29
4.72	4.35813474031e-29
4.73	3.28881102405e-29
4.74	2.48038119947e-29
4.75	1.86955905142e-29
4.76	1.40831948667e-29
4.77	1.0602406103e-29
4.78	7.97717145129e-30
4.79	5.99838949804e-30
4.8	4.50776891206e-30
4.81	3.38555497658e-30
4.82	2.54120289793e-30
4.83	1.90629477866e-30
4.84	1.42916384133e-30
4.85	1.0708169233e-30
4.86	8.01843619311e-31
4.87	6.00074779331e-31
4.88	4.48809783623e-31
4.89	3.3547526299e-31
4.9	2.50610886927e-31
4.91	1.87102939241e-31
4.92	1.39605500985e-31
4.93	1.04103587989e-31
4.94	7.75836324784e-32
4.95	5.77850862704e-32
4.96	4.30132905331e-32
4.97	3.19985879556e-32
4.98	2.37903157209e-32
4.99	1.76770928115e-32
5.0	1.31269165296e-32
5.01	9.74217328762e-33
5.02	7.22587129586e-33
5.03	5.35631165593e-33
5.04	3.96810083819e-33
5.05	2.93792568845e-33
5.06	2.17390298163e-33
5.07	1.60761020654e-33
5.08	1.18812626455e-33
5.09	8.77577910467e-34
5.1	6.47813530625e-34
5.11	4.77920424875e-34
5.12	3.52372828874e-34
5.13	2.59651287052e-34
5.14	1.91214046123e-34
5.15	1.40731186115e-34
5.16	1.03514729051e-34
5.17	7.60948379302e-35
5.18	5.59048502004e-35
5.19	4.10473405789e-35
5.2	3.01204743148e-35
5.21	2.20891921597e-35
5.22	1.6189711324e-35
5.23	1.18587693365e-35
5.24	8.68123241748e-36
5.25	6.35132578831e-36
5.26	4.64396183553e-36
5.27	3.39354911226e-36
5.28	2.47833996685e-36
5.29	1.80887629465e-36
5.3	1.31946568209e-36
5.31	9.61897012688e-37
5.32	7.00810012179e-37
5.33	5.10285543221e-37
5.34	3.71336360419e-37
5.35	2.70061660285e-37
5.36	1.96290659936e-37
5.37	1.42586228566e-37
5.38	1.03513447718e-37
5.39	7.51029871034e-38
5.4	5.44576495265e-38
5.41	3.94640651574e-38
5.42	2.85815640949e-38
5.43	2.06876618245e-38
5.44	1.49650464855e-38
5.45	1.08189715097e-38
5.46	7.81691031196e-39
5.47	5.64450063205e-39
5.48	4.07340102136e-39
5.49	2.93785295604e-39
5.5	2.1176012608e-39
5.51	1.52545557288e-39
5.52	1.09823728995e-39
5.53	7.90194591473e-40
5.54	5.6821561566e-40
5.55	4.08350904418e-40
5.56	2.93288560388e-40
5.57	2.10522234416e-40
5.58	1.51022641752e-40
5.59	1.08274802419e-40
5.6	7.75807514613e-41
5.61	5.55548282115e-41
5.62	3.97585814758e-41
5.63	2.84368310744e-41
5.64	2.03269753353e-41
5.65	1.45213023252e-41
5.66	1.03676330956e-41
5.67	7.39766935864e-42
5.68	5.27535218427e-42
5.69	3.75966583353e-42
5.7	2.67786252627e-42
5.71	1.90620039391e-42
5.72	1.35609488258e-42
5.73	9.64168290304e-43
5.74	6.85104557233e-43
5.75	4.86521585721e-43
5.76	3.45293669128e-43
5.77	2.449155517e-43
5.78	1.73614244629e-43
5.79	1.22997304042e-43
5.8	8.70857456075e-44
5.81	6.16225692772e-44
5.82	4.35786501621e-44
5.83	3.07998776416e-44
5.84	2.17553188825e-44
5.85	1.53575932384e-44
5.86	1.08348302833e-44
5.87	7.63945382405e-45
5.88	5.3832401257e-45
5.89	3.79111047109e-45
5.9	2.66827367814e-45
5.91	1.87687586337e-45
5.92	1.31941668461e-45
5.93	9.26978452065e-46
5.94	6.50876439607e-46
5.95	4.56739643508e-46
5.96	3.20317090412e-46
5.97	2.24508484499e-46
5.98	1.57263034207e-46
5.99	1.1009352771e-46
6.0	7.70261463275e-47
#normalisation = 0.25
#eerste moment n(k)k**2 = 0.163439811844
#2e moment n(k)k**2 = 0.125880030009
#3e moment n(k)k**2 = 0.109726978076
#4e moment n(k)k**2 = 0.105638546367
#sigma**2 n(k)k**2 = 0.0991674579134
#kurtosis n(k)k**2 = 2.28140491953
#skewness n(k)k**2 = 1.81683406428
