# mass number (A) = 208
# number of protons (Z) = 82
#units k = 1/fm , units n_1(k) = fm^3
# k (1/fm)	tot
0.0	0.0
0.01	1.68342016345e-10
0.02	1.07457925671e-08
0.03	1.21869665455e-07
0.04	6.80582596492e-07
0.05	2.57594300283e-06
0.06	7.61834682065e-06
0.07	1.8994118011e-05
0.08	4.17722501626e-05
0.09	8.34368741601e-05
0.1	0.000154416716186
0.11	0.000268581590274
0.12	0.000443675896104
0.13	0.000701660181434
0.14	0.00106893405455
0.15	0.00157641703062
0.16	0.00225946816419
0.17	0.00315763042194
0.18	0.00431419151853
0.19	0.00577555918456
0.2	0.00759045535082
0.21	0.0098089403008
0.22	0.0124812842407
0.23	0.0156567097488
0.24	0.0193820339861
0.25	0.0237002441948
0.26	0.0286490437116
0.27	0.0342594083563
0.28	0.0405541945129
0.29	0.0475468404488
0.3	0.0552402013894
0.31	0.0636255566008
0.32	0.0726818232843
0.33	0.0823750075535
0.34	0.0926579172657
0.35	0.103470155174
0.36	0.114738403936
0.37	0.12637700716
0.38	0.138288843092
0.39	0.150366479963
0.4	0.162493594687
0.41	0.174546629613
0.42	0.186396655767
0.43	0.197911405447
0.44	0.20895743248
0.45	0.219402354894
0.46	0.229117132405
0.47	0.237978329938
0.48	0.245870318485
0.49	0.252687365847
0.5	0.258335572297
0.51	0.262734609703
0.52	0.26581922721
0.53	0.267540491915
0.54	0.267866739098
0.55	0.266784213131
0.56	0.264297387199
0.57	0.26042895708
0.58	0.255219511379
0.59	0.248726887551
0.6	0.241025229637
0.61	0.232203769726
0.62	0.222365360598
0.63	0.211624791675
0.64	0.200106924272
0.65	0.187944685017
0.66	0.175276958331
0.67	0.162246419803
0.68	0.148997352384
0.69	0.135673486393
0.7	0.12241590261
0.71	0.109361035164
0.72	0.0966388076742
0.73	0.0843709322526
0.74	0.0726693966591
0.75	0.0616351601868
0.76	0.0513570739384
0.77	0.0419110361041
0.78	0.0333593878152
0.79	0.0257505502254
0.8	0.019118898782
0.81	0.0134848662679
0.82	0.00885526222072
0.83	0.00522379282262
0.84	0.00257176235786
0.85	0.00086893489527
0.86	7.45329848372e-05
0.87	0.000138348872275
0.88	0.00100194302312
0.89	0.00259990458879
0.9	0.00486114880921
0.91	0.00771022718795
0.92	0.0110686275468
0.93	0.0148560427111
0.94	0.0189915885318
0.95	0.0233949541575
0.96	0.0279874698552
0.97	0.0326930801895
0.98	0.0374392129352
0.99	0.0421575366659
1.0	0.0467846024712
1.01	0.0512623676686
1.02	0.0555386016381
1.03	0.0595671759958
1.04	0.0633082431963
1.05	0.0667283093044
1.06	0.0698002080748
1.07	0.0725029846299
1.08	0.0748216979194
1.09	0.0767471517898
1.1	0.0782755648957
1.11	0.0794081898572
1.12	0.0801508920343
1.13	0.0805136980608
1.14	0.0805103238875
1.15	0.080157691542
1.16	0.0794754431568
1.17	0.0784854600614
1.18	0.0772113939083
1.19	0.0756782159324
1.2	0.0739117895448
1.21	0.0719384705569
1.22	0.0697847384444
1.23	0.0674768611973
1.24	0.0650405954855
1.25	0.0625009231063
1.26	0.05988182398
1.27	0.0572060853293
1.28	0.0544951461243
1.29	0.0517689753945
1.3	0.0490459826116
1.31	0.0463429580187
1.32	0.0436750405358
1.33	0.0410557106873
1.34	0.0384968058872
1.35	0.0360085553589
1.36	0.0335996319704
1.37	0.0312772183081
1.38	0.0290470844056
1.39	0.0269136746603
1.4	0.0248802016251
1.41	0.0229487445308
1.42	0.0211203505837
1.43	0.0193951372783
1.44	0.0177723941682
1.45	0.0162506827418
1.46	0.0148279332485
1.47	0.013501537516
1.48	0.0122684369818
1.49	0.0111252053395
1.5	0.0100681253565
1.51	0.00909325957025
1.52	0.00819651469858
1.53	0.00737369971979
1.54	0.00662057767615
1.55	0.00593291134357
1.56	0.00530650298109
1.57	0.00473722843303
1.58	0.00422106590216
1.59	0.00375411974666
1.6	0.00333263967712
1.61	0.00295303574384
1.62	0.00261188951033
1.63	0.00230596180767
1.64	0.00203219745633
1.65	0.00178772732971
1.66	0.00156986811671
1.67	0.00137612012066
1.68	0.00120416340974
1.69	0.00105185261016
1.7	0.000917210608324
1.71	0.000798421403434
1.72	0.000693822326533
1.73	0.000601895817791
1.74	0.000521260930063
1.75	0.000450664704299
1.76	0.000388973541231
1.77	0.000335164674083
1.78	0.000288317828948
1.79	0.000247607142973
1.8	0.000212293395649
1.81	0.000181716595223
1.82	0.000155288950582
1.83	0.000132488248714
1.84	0.00011285164909
1.85	9.59698988081e-05
1.86	8.14819660725e-05
1.87	6.90700844309e-05
1.88	5.84551960184e-05
1.89	4.9392778798e-05
1.9	4.16690403078e-05
1.91	3.50974586423e-05
1.92	2.95156502075e-05
1.93	2.47825431129e-05
1.94	2.07758348178e-05
1.95	1.73897127594e-05
1.96	1.45328170874e-05
1.97	1.21264252621e-05
1.98	1.01028390795e-05
1.99	8.40395562712e-06
2.0	6.98000470584e-06
2.01	5.78843634849e-06
2.02	4.79294318365e-06
2.03	3.96260352602e-06
2.04	3.27113219098e-06
2.05	2.69622712111e-06
2.06	2.21900096373e-06
2.07	1.82348774124e-06
2.08	1.49621570449e-06
2.09	1.2258383495e-06
2.1	1.00281640652e-06
2.11	8.19144377751e-07
2.12	6.68115905664e-07
2.13	5.44122899505e-07
2.14	4.42483935081e-07
2.15	3.59297975175e-07
2.16	2.91319937699e-07
2.17	2.35855069469e-07
2.18	1.90669468587e-07
2.19	1.53914441384e-07
2.2	1.24062684175e-07
2.21	9.98545491029e-08
2.22	8.0252890357e-08
2.23	6.44051951543e-08
2.24	5.16118860557e-08
2.25	4.12998401013e-08
2.26	3.30003085183e-08
2.27	2.63305406689e-08
2.28	2.09785196086e-08
2.29	1.669030607e-08
2.3	1.32595646058e-08
2.31	1.05189116105e-08
2.32	8.33278138751e-09
2.33	6.59155460078e-09
2.34	5.20673444813e-09
2.35	4.1069907104e-09
2.36	3.234921316e-09
2.37	2.54440597853e-09
2.38	1.99844747005e-09
2.39	1.56741375981e-09
2.4	1.22760907303e-09
2.41	9.60114336722e-10
2.42	7.49847848792e-10
2.43	5.84805650253e-10
2.44	4.55448269585e-10
2.45	3.5420647546e-10
2.46	2.75083616142e-10
2.47	2.13336208518e-10
2.48	1.65217808763e-10
2.49	1.27773969628e-10
2.5	9.8678367239e-11
2.51	7.61020476238e-11
2.52	5.86092710018e-11
2.53	4.50746793359e-11
2.54	3.46175293098e-11
2.55	2.6549559785e-11
2.56	2.03337340688e-11
2.57	1.55516412291e-11
2.58	1.18777805547e-11
2.59	9.05930831413e-12
2.6	6.90011203543e-12
2.61	5.24830757759e-12
2.62	3.98643893528e-12
2.63	3.02380868098e-12
2.64	2.29048529025e-12
2.65	1.73262807284e-12
2.66	1.30884572298e-12
2.67	9.87364394604e-13
2.68	7.43828767778e-13
2.69	5.59597271732e-13
2.7	4.20422461797e-13
2.71	3.15431111312e-13
2.72	2.36337160795e-13
2.73	1.76835293175e-13
2.74	1.32134397708e-13
2.75	9.85992018221e-14
2.76	7.34754113679e-14
2.77	5.467922032e-14
2.78	4.06363597252e-14
2.79	3.01592129594e-14
2.8	2.23531359073e-14
2.81	1.6545148742e-14
2.82	1.22297383191e-14
2.83	9.0277272002e-15
2.84	6.65510573513e-15
2.85	4.89944912937e-15
2.86	3.60210020238e-15
2.87	2.64472821628e-15
2.88	1.9392040146e-15
2.89	1.41998453542e-15
2.9	1.03839323101e-15
2.91	7.58330734313e-16
2.92	5.53062856338e-16
2.93	4.02818859724e-16
2.94	2.92998236866e-16
2.95	2.12833780513e-16
2.96	1.54396297399e-16
2.97	1.11854740818e-16
2.98	8.09270149423e-17
2.99	5.84729050874e-17
3.0	4.21927909632e-17
3.01	3.04049765883e-17
3.02	2.18813608611e-17
3.03	1.57263382999e-17
3.04	1.12876859933e-17
3.05	8.0910825284e-18
3.06	5.79206103177e-18
3.07	4.14080512106e-18
3.08	2.95639181033e-18
3.09	2.10797324423e-18
3.1	1.50104760923e-18
3.11	1.06745719661e-18
3.12	7.58112151158e-19
3.13	5.37704639696e-19
3.14	3.8087441197e-19
3.15	2.69431172347e-19
3.16	1.90345343551e-19
3.17	1.34296712857e-19
3.18	9.46275402723e-20
3.19	6.6588478672e-20
3.2	4.67961725549e-20
3.21	3.28436637307e-20
3.22	2.30209479065e-20
3.23	1.61148202367e-20
3.24	1.12657134174e-20
3.25	7.8654434617e-21
3.26	5.48427614897e-21
3.27	3.81897930913e-21
3.28	2.65587411323e-21
3.29	1.84459128716e-21
3.3	1.27945672198e-21
3.31	8.86306876514e-22
3.32	6.13163078892e-22
3.33	4.23644446371e-22
3.34	2.92321638694e-22
3.35	2.01444129908e-22
3.36	1.38638148493e-22
3.37	9.52896293743e-23
3.38	6.5409909977e-23
3.39	4.48411517327e-23
3.4	3.07005054271e-23
3.41	2.09918209809e-23
3.42	1.43347718433e-23
3.43	9.77614863532e-24
3.44	6.65857662766e-24
3.45	4.52930801687e-24
3.46	3.0769426956e-24
3.47	2.08758566573e-24
3.48	1.41451251917e-24
3.49	9.57209762711e-25
3.5	6.46912463567e-25
3.51	4.36638705868e-25
3.52	2.94332008268e-25
3.53	1.98148842651e-25
3.54	1.33224654292e-25
3.55	8.94575312813e-26
3.56	5.99913573841e-26
3.57	4.01790964365e-26
3.58	2.68751913052e-26
3.59	1.79532510937e-26
3.6	1.19777434517e-26
3.61	7.98081946991e-27
3.62	5.31080995326e-27
3.63	3.52951507022e-27
3.64	2.34266688347e-27
3.65	1.55291420618e-27
3.66	1.02807789612e-27
3.67	6.79745624109e-28
3.68	4.48857888872e-28
3.69	2.96014884833e-28
3.7	1.94966808276e-28
3.71	1.282479577e-28
3.72	8.42525537528e-29
3.73	5.52788148903e-29
3.74	3.62224316438e-29
3.75	2.37049966464e-29
3.76	1.54933668231e-29
3.77	1.01133608902e-29
3.78	6.59309281471e-30
3.79	4.29266543698e-30
3.8	2.79131753813e-30
3.81	1.81274192484e-30
3.82	1.17572952992e-30
3.83	7.61594438176e-31
3.84	4.92702957178e-31
3.85	3.18340443432e-31
3.86	2.05420547167e-31
3.87	1.32385840095e-31
3.88	8.52088982613e-32
3.89	5.47739793822e-32
3.9	3.516492827e-32
3.91	2.25471390067e-32
3.92	1.44384169358e-32
3.93	9.23409437677e-33
3.94	5.89814976077e-33
3.95	3.7625666342e-33
3.96	2.39717468008e-33
3.97	1.52532504071e-33
3.98	9.69331914058e-34
3.99	6.15219613731e-34
4.0	3.89973896702e-34
4.01	2.46881621507e-34
4.02	1.56095360202e-34
4.03	9.8568781598e-35
4.04	6.21637339642e-35
4.05	3.91546419965e-35
4.06	2.46307722484e-35
4.07	1.54746755651e-35
4.08	9.7098825055e-36
4.09	6.08492793211e-36
4.1	3.80843096809e-36
4.11	2.38059799441e-36
4.12	1.48619400731e-36
4.13	9.26647491939e-37
4.14	5.77036583987e-37
4.15	3.58874023511e-37
4.16	2.22910598343e-37
4.17	1.38283245796e-37
4.18	8.5675904763e-38
4.19	5.30149375954e-38
4.2	3.2763354596e-38
4.21	2.02222350216e-38
4.22	1.24658173198e-38
4.23	7.67473353243e-39
4.24	4.71907547943e-39
4.25	2.89802241039e-39
4.26	1.77745199071e-39
4.27	1.08879337047e-39
4.28	6.66107969487e-40
4.29	4.07001011036e-40
4.3	2.48369444107e-40
4.31	1.51374521323e-40
4.32	9.2142387533e-41
4.33	5.60168031337e-41
4.34	3.40117891639e-41
4.35	2.06249570843e-41
4.36	1.24913438397e-41
4.37	7.55575596687e-42
4.38	4.56456554977e-42
4.39	2.75406289216e-42
4.4	1.65959169486e-42
4.41	9.9880741649e-43
4.42	6.00365161407e-43
4.43	3.60414733584e-43
4.44	2.16094160057e-43
4.45	1.29400833472e-43
4.46	7.73899873041e-44
4.47	4.62259924013e-44
4.48	2.7576654966e-44
4.49	1.64305048218e-44
4.5	9.77719585194e-45
4.51	5.81074628542e-45
4.52	3.4490842797e-45
4.53	2.04470236121e-45
4.54	1.21062849431e-45
4.55	7.15889986776e-46
4.56	4.2280137291e-46
4.57	2.49391297656e-46
4.58	1.46920063107e-46
4.59	8.64442124014e-47
4.6	5.07979095192e-47
4.61	2.98133624033e-47
4.62	1.74755710566e-47
4.63	1.02307432937e-47
4.64	5.98189091763e-48
4.65	3.49321548132e-48
4.66	2.03736078737e-48
4.67	1.18676924717e-48
4.68	6.90431332226e-49
4.69	4.01172042166e-49
4.7	2.32807452438e-49
4.71	1.34933330736e-49
4.72	7.81084171202e-50
4.73	4.51577980358e-50
4.74	2.60749863919e-50
4.75	1.5037371406e-50
4.76	8.66116581743e-51
4.77	4.98238700933e-51
4.78	2.86256481975e-51
4.79	1.64259332243e-51
4.8	9.41372949655e-52
4.81	5.38828303533e-52
4.82	3.08032254501e-52
4.83	1.75873004062e-52
4.84	1.00290419036e-52
4.85	5.71185363351e-53
4.86	3.2490181471e-53
4.87	1.84580037108e-53
4.88	1.04730922132e-53
4.89	5.93502856479e-54
4.9	3.35914281074e-54
4.91	1.89885573439e-54
4.92	1.07204595102e-54
4.93	6.04495174202e-55
4.94	3.40431987898e-55
4.95	1.91481158695e-55
4.96	1.07567227194e-55
4.97	6.03520767015e-56
4.98	3.38191632433e-56
4.99	1.89274439144e-56
5.0	1.05798527683e-56
5.01	5.90644142357e-57
5.02	3.29329681669e-57
5.03	1.83398009376e-57
5.04	1.02004000401e-57
5.05	5.66628882778e-58
5.06	3.1436862932e-58
5.07	1.7419623215e-58
5.08	9.6404531062e-59
5.09	5.32862724795e-59
5.1	2.94166025214e-59
5.11	1.62191851055e-59
5.12	8.93151157365e-60
5.13	4.91224915973e-60
5.14	2.69833188142e-60
5.15	1.48036894905e-60
5.16	8.11155771828e-61
5.17	4.43913466206e-61
5.18	2.42634305796e-61
5.19	1.32454277156e-61
5.2	7.22170478959e-62
5.21	3.93254322338e-62
5.22	2.13878620014e-62
5.23	1.16177333003e-62
5.24	6.30283092893e-63
5.25	3.41515329986e-63
5.26	1.84818356419e-63
5.27	9.98942345563e-64
5.28	5.39257539459e-64
5.29	2.90745213699e-64
5.3	1.56563142963e-64
5.31	8.42029213913e-65
5.32	4.52298889332e-65
5.33	2.42652448729e-65
5.34	1.30018362501e-65
5.35	6.95801921089e-66
5.36	3.71901160279e-66
5.37	1.98531983626e-66
5.38	1.058508937e-66
5.39	5.63663268654e-67
5.4	2.99782417887e-67
5.41	1.59240619324e-67
5.42	8.44817483735e-68
5.43	4.47644570994e-68
5.44	2.36900076971e-68
5.45	1.25215643841e-68
5.46	6.61018396548e-69
5.47	3.48521941753e-69
5.48	1.83530557367e-69
5.49	9.65269043008e-70
5.5	5.07049273816e-70
5.51	2.6601970022e-70
5.52	1.39392477625e-70
5.53	7.29502582175e-71
5.54	3.81308373408e-71
5.55	1.99061796193e-71
5.56	1.03791458813e-71
5.57	5.40502228508e-72
5.58	2.81122489709e-72
5.59	1.46034670079e-72
5.6	7.57667558301e-73
5.61	3.92612206381e-73
5.62	2.03194216819e-73
5.63	1.05031938342e-73
5.64	5.42243008497e-74
5.65	2.79594830094e-74
5.66	1.43988218538e-74
5.67	7.40606428356e-75
5.68	3.80461524501e-75
5.69	1.95207638732e-75
5.7	1.00033559034e-75
5.71	5.11985345959e-76
5.72	2.61717213835e-76
5.73	1.33619561538e-76
5.74	6.81350912475e-77
5.75	3.47004203429e-77
5.76	1.76506934383e-77
5.77	8.9670997186e-78
5.78	4.54993786008e-78
5.79	2.30580309549e-78
5.8	1.1670845079e-78
5.81	5.89991522668e-79
5.82	2.97887765467e-79
5.83	1.5021836697e-79
5.84	7.56583606965e-80
5.85	3.80587381405e-80
5.86	1.91212137208e-80
5.87	9.59489408733e-81
5.88	4.80871035393e-81
5.89	2.4070261117e-81
5.9	1.2033633453e-81
5.91	6.00864567362e-82
5.92	2.99654148173e-82
5.93	1.49254667462e-82
5.94	7.42505234921e-83
5.95	3.68922492479e-83
5.96	1.8307743001e-83
5.97	9.07399598551e-84
5.98	4.49186301776e-84
5.99	2.22084686203e-84
6.0	1.09666744903e-84
#normalisation = 0.0673076923077
#eerste moment n(k)k**2 = 0.0660068110388
#2e moment n(k)k**2 = 0.072610361923
#3e moment n(k)k**2 = 0.0860743882907
#4e moment n(k)k**2 = 0.107067528451
#sigma**2 n(k)k**2 = 0.0682534628195
#kurtosis n(k)k**2 = 15.4999640181
#skewness n(k)k**2 = 4.053016474
