# Mass = 0.0480256 Mev*(hbarc)^2/2 
# R = 7.4655 fm 
# a = 0.662 fm 
# V0 = 45.181 MeV 
# RSO = 6.861 fm 
# aSO = 0.662 fm 
# VSO = 27.855 MeV fm^2
# n = 2 
# l = 1 
# two_j = 1 
# two_t = -1 
# Energy = -7.69522 MeV
# r          u            Phi          u/r          
0.1          0.00247801   0.000774903  0.0247801    
0.10238      0.00259735   0.000793175  0.0253697    
0.10476      0.00271948   0.00081144   0.0259591    
0.10714      0.00284438   0.000829696  0.0265483    
0.10952      0.00297207   0.000847942  0.0271372    
0.1119       0.00310252   0.00086618   0.0277259    
0.11428      0.00323576   0.000884408  0.0283143    
0.11666      0.00337177   0.000902626  0.0289025    
0.11904      0.00351055   0.000920834  0.0294905    
0.12142      0.0036521    0.000939032  0.0300782    
0.1238       0.00379642   0.000957218  0.0306658    
0.12618      0.00394351   0.000975394  0.031253     
0.12856      0.00409336   0.000993558  0.0318401    
0.13094      0.00424598   0.00101171   0.0324269    
0.13332      0.00440136   0.00102985   0.0330135    
0.1357       0.0045595    0.00104798   0.0335999    
0.13808      0.0047204    0.0010661    0.034186     
0.14046      0.00488406   0.0010842    0.0347719    
0.14284      0.00505047   0.00110229   0.0353575    
0.14522      0.00521963   0.00112037   0.0359429    
0.1476       0.00539155   0.00113843   0.0365281    
0.14998      0.00556621   0.00115649   0.037113     
0.15236      0.00574362   0.00117452   0.0376977    
0.15474      0.00592377   0.00119255   0.0382821    
0.15712      0.00610667   0.00121055   0.0388663    
0.1595       0.00629231   0.00122855   0.0394502    
0.16188      0.00648068   0.00124653   0.0400339    
0.16426      0.00667179   0.00126449   0.0406173    
0.16664      0.00686563   0.00128244   0.0412004    
0.16902      0.00706221   0.00130037   0.0417833    
0.1714       0.00726151   0.00131829   0.0423659    
0.17378      0.00746354   0.00133619   0.0429482    
0.17616      0.00766829   0.00135408   0.0435303    
0.17854      0.00787577   0.00137195   0.0441121    
0.18092      0.00808596   0.0013898    0.0446936    
0.1833       0.00829887   0.00140764   0.0452748    
0.18568      0.00851449   0.00142545   0.0458557    
0.18806      0.00873282   0.00144326   0.0464364    
0.19044      0.00895386   0.00146104   0.0470167    
0.19282      0.00917761   0.00147881   0.0475968    
0.1952       0.00940406   0.00149655   0.0481765    
0.19758      0.00963321   0.00151428   0.048756     
0.19996      0.00986506   0.00153199   0.0493352    
0.20234      0.0100996    0.00154969   0.049914     
0.20472      0.0103368    0.00156736   0.0504926    
0.2071       0.0105768    0.00158502   0.0510708    
0.20948      0.0108194    0.00160265   0.0516487    
0.21186      0.0110647    0.00162027   0.0522263    
0.21424      0.0113126    0.00163786   0.0528035    
0.21662      0.0115633    0.00165544   0.0533805    
0.219        0.0118166    0.00167299   0.0539571    
0.22138      0.0120726    0.00169053   0.0545333    
0.22376      0.0123313    0.00170804   0.0551093    
0.22614      0.0125926    0.00172554   0.0556849    
0.22852      0.0128566    0.00174301   0.0562601    
0.2309       0.0131232    0.00176046   0.056835     
0.23328      0.0133925    0.00177789   0.0574096    
0.23566      0.0136645    0.0017953    0.0579838    
0.23804      0.0139391    0.00181268   0.0585576    
0.24042      0.0142163    0.00183005   0.0591311    
0.2428       0.0144962    0.00184739   0.0597042    
0.24518      0.0147787    0.00186471   0.060277     
0.24756      0.0150639    0.001882     0.0608493    
0.24994      0.0153516    0.00189928   0.0614213    
0.25232      0.0156421    0.00191653   0.061993     
0.2547       0.0159351    0.00193375   0.0625642    
0.25708      0.0162308    0.00195096   0.0631351    
0.25946      0.016529     0.00196813   0.0637055    
0.26184      0.0168299    0.00198529   0.0642756    
0.26422      0.0171334    0.00200242   0.0648453    
0.2666       0.0174395    0.00201953   0.0654146    
0.26898      0.0177482    0.00203661   0.0659835    
0.27136      0.0180595    0.00205366   0.066552     
0.27374      0.0183734    0.00207069   0.06712      
0.27612      0.0186899    0.0020877    0.0676877    
0.2785       0.019009     0.00210468   0.0682549    
0.28088      0.0193307    0.00212163   0.0688218    
0.28326      0.0196549    0.00213856   0.0693882    
0.28564      0.0199817    0.00215546   0.0699542    
0.28802      0.0203111    0.00217234   0.0705197    
0.2904       0.020643     0.00218919   0.0710849    
0.29278      0.0209776    0.00220601   0.0716495    
0.29516      0.0213146    0.0022228    0.0722138    
0.29754      0.0216542    0.00223957   0.0727776    
0.29992      0.0219964    0.00225631   0.073341     
0.3023       0.0223411    0.00227302   0.0739039    
0.30468      0.0226884    0.00228971   0.0744663    
0.30706      0.0230382    0.00230636   0.0750284    
0.30944      0.0233905    0.00232299   0.0755899    
0.31182      0.0237454    0.00233959   0.076151     
0.3142       0.0241028    0.00235616   0.0767116    
0.31658      0.0244627    0.00237271   0.0772718    
0.31896      0.0248251    0.00238922   0.0778315    
0.32134      0.0251901    0.0024057    0.0783907    
0.32372      0.0255575    0.00242216   0.0789494    
0.3261       0.0259274    0.00243858   0.0795076    
0.32848      0.0262999    0.00245497   0.0800654    
0.33086      0.0266748    0.00247134   0.0806227    
0.33324      0.0270522    0.00248767   0.0811794    
0.33562      0.0274321    0.00250398   0.0817357    
0.338        0.0278145    0.00252025   0.0822915    
0.34038      0.0281994    0.00253649   0.0828468    
0.34276      0.0285867    0.0025527    0.0834016    
0.34514      0.0289765    0.00256888   0.0839558    
0.34752      0.0293688    0.00258503   0.0845096    
0.3499       0.0297635    0.00260114   0.0850628    
0.35228      0.0301606    0.00261723   0.0856156    
0.35466      0.0305603    0.00263328   0.0861678    
0.35704      0.0309623    0.0026493    0.0867194    
0.35942      0.0313668    0.00266528   0.0872706    
0.3618       0.0317737    0.00268124   0.0878212    
0.36418      0.032183     0.00269716   0.0883713    
0.36656      0.0325948    0.00271305   0.0889208    
0.36894      0.033009     0.0027289    0.0894698    
0.37132      0.0334256    0.00274472   0.0900183    
0.3737       0.0338446    0.00276051   0.0905662    
0.37608      0.034266     0.00277626   0.0911135    
0.37846      0.0346898    0.00279198   0.0916603    
0.38084      0.0351159    0.00280766   0.0922065    
0.38322      0.0355445    0.00282331   0.0927522    
0.3856       0.0359754    0.00283893   0.0932973    
0.38798      0.0364088    0.00285451   0.0938419    
0.39036      0.0368445    0.00287005   0.0943858    
0.39274      0.0372825    0.00288556   0.0949292    
0.39512      0.0377229    0.00290104   0.0954721    
0.3975       0.0381657    0.00291648   0.0960143    
0.39988      0.0386108    0.00293188   0.0965559    
0.40226      0.0390582    0.00294725   0.097097     
0.40464      0.039508     0.00296258   0.0976375    
0.40702      0.0399601    0.00297787   0.0981774    
0.4094       0.0404146    0.00299313   0.0987166    
0.41178      0.0408714    0.00300835   0.0992553    
0.41416      0.0413304    0.00302353   0.0997934    
0.41654      0.0417918    0.00303868   0.100331     
0.41892      0.0422555    0.00305379   0.100868     
0.4213       0.0427215    0.00306886   0.101404     
0.42368      0.0431898    0.00308389   0.10194      
0.42606      0.0436603    0.00309889   0.102475     
0.42844      0.0441332    0.00311384   0.103009     
0.43082      0.0446083    0.00312876   0.103543     
0.4332       0.0450857    0.00314364   0.104076     
0.43558      0.0455653    0.00315848   0.104608     
0.43796      0.0460472    0.00317329   0.10514      
0.44034      0.0465314    0.00318805   0.105671     
0.44272      0.0470178    0.00320277   0.106202     
0.4451       0.0475064    0.00321746   0.106732     
0.44748      0.0479973    0.0032321    0.107261     
0.44986      0.0484904    0.00324671   0.10779      
0.45224      0.0489857    0.00326127   0.108318     
0.45462      0.0494832    0.0032758    0.108845     
0.457        0.0499829    0.00329028   0.109372     
0.45938      0.0504849    0.00330473   0.109898     
0.46176      0.050989     0.00331913   0.110423     
0.46414      0.0514953    0.00333349   0.110948     
0.46652      0.0520038    0.00334781   0.111472     
0.4689       0.0525145    0.00336209   0.111995     
0.47128      0.0530274    0.00337633   0.112518     
0.47366      0.0535424    0.00339052   0.11304      
0.47604      0.0540595    0.00340468   0.113561     
0.47842      0.0545789    0.00341879   0.114082     
0.4808       0.0551003    0.00343286   0.114601     
0.48318      0.0556239    0.00344689   0.115121     
0.48556      0.0561497    0.00346087   0.115639     
0.48794      0.0566776    0.00347482   0.116157     
0.49032      0.0572075    0.00348872   0.116674     
0.4927       0.0577396    0.00350257   0.11719      
0.49508      0.0582738    0.00351639   0.117706     
0.49746      0.0588101    0.00353016   0.118221     
0.49984      0.0593485    0.00354388   0.118735     
0.50222      0.059889     0.00355756   0.119249     
0.5046       0.0604316    0.0035712    0.119761     
0.50698      0.0609762    0.0035848    0.120273     
0.50936      0.0615229    0.00359835   0.120785     
0.51174      0.0620717    0.00361185   0.121295     
0.51412      0.0626225    0.00362531   0.121805     
0.5165       0.0631753    0.00363873   0.122314     
0.51888      0.0637302    0.0036521    0.122823     
0.52126      0.0642871    0.00366543   0.12333      
0.52364      0.0648461    0.00367871   0.123837     
0.52602      0.0654071    0.00369194   0.124343     
0.5284       0.06597      0.00370513   0.124849     
0.53078      0.066535     0.00371827   0.125353     
0.53316      0.067102     0.00373137   0.125857     
0.53554      0.067671     0.00374442   0.12636      
0.53792      0.0682419    0.00375743   0.126863     
0.5403       0.0688149    0.00377038   0.127364     
0.54268      0.0693898    0.0037833    0.127865     
0.54506      0.0699666    0.00379616   0.128365     
0.54744      0.0705454    0.00380898   0.128864     
0.54982      0.0711262    0.00382175   0.129363     
0.5522       0.0717089    0.00383447   0.12986      
0.55458      0.0722936    0.00384715   0.130357     
0.55696      0.0728801    0.00385978   0.130853     
0.55934      0.0734686    0.00387236   0.131349     
0.56172      0.074059     0.00388489   0.131843     
0.5641       0.0746513    0.00389737   0.132337     
0.56648      0.0752455    0.00390981   0.13283      
0.56886      0.0758416    0.0039222    0.133322     
0.57124      0.0764395    0.00393453   0.133813     
0.57362      0.0770394    0.00394682   0.134304     
0.576        0.0776411    0.00395906   0.134794     
0.57838      0.0782446    0.00397126   0.135282     
0.58076      0.07885      0.0039834    0.13577      
0.58314      0.0794573    0.00399549   0.136258     
0.58552      0.0800664    0.00400753   0.136744     
0.5879       0.0806773    0.00401953   0.13723      
0.59028      0.0812901    0.00403147   0.137714     
0.59266      0.0819047    0.00404337   0.138198     
0.59504      0.082521     0.00405521   0.138681     
0.59742      0.0831392    0.004067     0.139164     
0.5998       0.0837592    0.00407875   0.139645     
0.60218      0.0843809    0.00409044   0.140126     
0.60456      0.0850044    0.00410208   0.140605     
0.60694      0.0856297    0.00411367   0.141084     
0.60932      0.0862568    0.00412521   0.141562     
0.6117       0.0868856    0.0041367    0.142039     
0.61408      0.0875161    0.00414813   0.142516     
0.61646      0.0881484    0.00415952   0.142991     
0.61884      0.0887824    0.00417085   0.143466     
0.62122      0.0894181    0.00418213   0.14394      
0.6236       0.0900556    0.00419336   0.144412     
0.62598      0.0906947    0.00420454   0.144884     
0.62836      0.0913356    0.00421566   0.145355     
0.63074      0.0919781    0.00422674   0.145826     
0.63312      0.0926223    0.00423776   0.146295     
0.6355       0.0932682    0.00424872   0.146764     
0.63788      0.0939158    0.00425964   0.147231     
0.64026      0.094565     0.0042705    0.147698     
0.64264      0.0952159    0.00428131   0.148164     
0.64502      0.0958684    0.00429206   0.148629     
0.6474       0.0965225    0.00430276   0.149093     
0.64978      0.0971783    0.00431341   0.149556     
0.65216      0.0978357    0.00432401   0.150018     
0.65454      0.0984946    0.00433455   0.150479     
0.65692      0.0991552    0.00434503   0.15094      
0.6593       0.0998174    0.00435546   0.151399     
0.66168      0.100481     0.00436584   0.151858     
0.66406      0.101147     0.00437616   0.152315     
0.66644      0.101813     0.00438643   0.152772     
0.66882      0.102482     0.00439665   0.153228     
0.6712       0.103152     0.00440681   0.153683     
0.67358      0.103823     0.00441691   0.154137     
0.67596      0.104497     0.00442696   0.15459      
0.67834      0.105171     0.00443695   0.155042     
0.68072      0.105847     0.00444689   0.155493     
0.6831       0.106525     0.00445678   0.155943     
0.68548      0.107204     0.0044666    0.156393     
0.68786      0.107885     0.00447638   0.156841     
0.69024      0.108567     0.00448609   0.157289     
0.69262      0.10925      0.00449575   0.157735     
0.695        0.109936     0.00450535   0.158181     
0.69738      0.110622     0.0045149    0.158625     
0.69976      0.11131      0.00452439   0.159069     
0.70214      0.111999     0.00453383   0.159512     
0.70452      0.11269      0.00454321   0.159953     
0.7069       0.113383     0.00455253   0.160394     
0.70928      0.114076     0.00456179   0.160834     
0.71166      0.114771     0.004571     0.161273     
0.71404      0.115468     0.00458015   0.161711     
0.71642      0.116166     0.00458924   0.162147     
0.7188       0.116865     0.00459827   0.162583     
0.72118      0.117566     0.00460725   0.163018     
0.72356      0.118267     0.00461617   0.163452     
0.72594      0.118971     0.00462503   0.163885     
0.72832      0.119676     0.00463384   0.164317     
0.7307       0.120382     0.00464259   0.164748     
0.73308      0.121089     0.00465127   0.165178     
0.73546      0.121798     0.0046599    0.165607     
0.73784      0.122507     0.00466847   0.166035     
0.74022      0.123219     0.00467699   0.166462     
0.7426       0.123931     0.00468544   0.166888     
0.74498      0.124645     0.00469384   0.167313     
0.74736      0.12536      0.00470217   0.167737     
0.74974      0.126077     0.00471045   0.168161     
0.75212      0.126794     0.00471867   0.168583     
0.7545       0.127513     0.00472683   0.169004     
0.75688      0.128233     0.00473493   0.169424     
0.75926      0.128955     0.00474297   0.169843     
0.76164      0.129677     0.00475095   0.170261     
0.76402      0.130401     0.00475888   0.170677     
0.7664       0.131126     0.00476674   0.171093     
0.76878      0.131852     0.00477454   0.171508     
0.77116      0.13258      0.00478228   0.171922     
0.77354      0.133308     0.00478996   0.172335     
0.77592      0.134038     0.00479759   0.172747     
0.7783       0.134769     0.00480515   0.173158     
0.78068      0.135501     0.00481265   0.173567     
0.78306      0.136234     0.00482009   0.173976     
0.78544      0.136968     0.00482747   0.174384     
0.78782      0.137703     0.00483479   0.17479      
0.7902       0.13844      0.00484205   0.175196     
0.79258      0.139177     0.00484925   0.1756       
0.79496      0.139916     0.00485638   0.176004     
0.79734      0.140656     0.00486346   0.176406     
0.79972      0.141397     0.00487047   0.176808     
0.8021       0.142139     0.00487743   0.177208     
0.80448      0.142882     0.00488432   0.177607     
0.80686      0.143626     0.00489115   0.178006     
0.80924      0.144371     0.00489792   0.178403     
0.81162      0.145117     0.00490462   0.178799     
0.814        0.145864     0.00491127   0.179194     
0.81638      0.146612     0.00491785   0.179588     
0.81876      0.147361     0.00492437   0.179981     
0.82114      0.148111     0.00493083   0.180372     
0.82352      0.148862     0.00493723   0.180763     
0.8259       0.149614     0.00494356   0.181153     
0.82828      0.150367     0.00494983   0.181541     
0.83066      0.151121     0.00495604   0.181929     
0.83304      0.151876     0.00496219   0.182315     
0.83542      0.152632     0.00496828   0.1827       
0.8378       0.153388     0.0049743    0.183085     
0.84018      0.154146     0.00498026   0.183468     
0.84256      0.154904     0.00498615   0.18385      
0.84494      0.155664     0.00499199   0.184231     
0.84732      0.156424     0.00499775   0.18461      
0.8497       0.157185     0.00500346   0.184989     
0.85208      0.157947     0.00500911   0.185367     
0.85446      0.15871      0.00501469   0.185743     
0.85684      0.159474     0.0050202    0.186119     
0.85922      0.160239     0.00502565   0.186493     
0.8616       0.161004     0.00503104   0.186866     
0.86398      0.16177      0.00503637   0.187238     
0.86636      0.162537     0.00504163   0.187609     
0.86874      0.163305     0.00504683   0.187979     
0.87112      0.164074     0.00505196   0.188348     
0.8735       0.164843     0.00505703   0.188716     
0.87588      0.165613     0.00506204   0.189082     
0.87826      0.166384     0.00506698   0.189447     
0.88064      0.167156     0.00507186   0.189812     
0.88302      0.167928     0.00507667   0.190175     
0.8854       0.168701     0.00508142   0.190537     
0.88778      0.169475     0.00508611   0.190898     
0.89016      0.17025      0.00509073   0.191257     
0.89254      0.171025     0.00509528   0.191616     
0.89492      0.171801     0.00509977   0.191973     
0.8973       0.172577     0.0051042    0.19233      
0.89968      0.173355     0.00510856   0.192685     
0.90206      0.174133     0.00511286   0.193039     
0.90444      0.174911     0.00511709   0.193392     
0.90682      0.17569      0.00512125   0.193743     
0.9092       0.17647      0.00512535   0.194094     
0.91158      0.177251     0.00512939   0.194443     
0.91396      0.178032     0.00513336   0.194792     
0.91634      0.178814     0.00513727   0.195139     
0.91872      0.179596     0.00514111   0.195485     
0.9211       0.180379     0.00514488   0.19583      
0.92348      0.181162     0.00514859   0.196173     
0.92586      0.181946     0.00515223   0.196516     
0.92824      0.182731     0.00515581   0.196857     
0.93062      0.183516     0.00515932   0.197197     
0.933        0.184301     0.00516277   0.197536     
0.93538      0.185087     0.00516615   0.197874     
0.93776      0.185874     0.00516946   0.198211     
0.94014      0.186661     0.00517271   0.198546     
0.94252      0.187449     0.00517589   0.19888      
0.9449       0.188237     0.00517901   0.199213     
0.94728      0.189025     0.00518206   0.199545     
0.94966      0.189814     0.00518504   0.199876     
0.95204      0.190604     0.00518796   0.200206     
0.95442      0.191394     0.00519081   0.200534     
0.9568       0.192184     0.0051936    0.200861     
0.95918      0.192975     0.00519632   0.201187     
0.96156      0.193766     0.00519897   0.201512     
0.96394      0.194558     0.00520156   0.201836     
0.96632      0.19535      0.00520407   0.202158     
0.9687       0.196142     0.00520653   0.20248      
0.97108      0.196935     0.00520891   0.2028       
0.97346      0.197728     0.00521123   0.203118     
0.97584      0.198521     0.00521349   0.203436     
0.97822      0.199315     0.00521567   0.203753     
0.9806       0.200109     0.00521779   0.204068     
0.98298      0.200903     0.00521984   0.204382     
