# Mass = 0.0480256 Mev*(hbarc)^2/2 
# R = 7.4655 fm 
# a = 0.662 fm 
# V0 = 45.181 MeV 
# RSO = 6.861 fm 
# aSO = 0.662 fm 
# VSO = 27.855 MeV fm^2
# n = 2 
# l = 1 
# two_j = 3 
# two_t = -1 
# Energy = -8.49659 MeV
# r          u            Phi          u/r          
0.1          0.00246842   0.000601937  0.0246842    
0.10238      0.0025873    0.000616134  0.0252716    
0.10476      0.00270896   0.000630325  0.0258587    
0.10714      0.00283338   0.000644509  0.0264456    
0.10952      0.00296057   0.000658686  0.0270322    
0.1119       0.00309053   0.000672856  0.0276187    
0.11428      0.00322325   0.000687019  0.0282049    
0.11666      0.00335874   0.000701174  0.0287908    
0.11904      0.00349699   0.000715322  0.0293766    
0.12142      0.003638     0.000729461  0.0299621    
0.1238       0.00378176   0.000743593  0.0305474    
0.12618      0.00392829   0.000757716  0.0311324    
0.12856      0.00407757   0.00077183   0.0317173    
0.13094      0.00422961   0.000785936  0.0323019    
0.13332      0.0043844    0.000800033  0.0328863    
0.1357       0.00454194   0.00081412   0.0334704    
0.13808      0.00470223   0.000828198  0.0340544    
0.14046      0.00486526   0.000842266  0.0346381    
0.14284      0.00503104   0.000856325  0.0352215    
0.14522      0.00519957   0.000870374  0.0358048    
0.1476       0.00537083   0.000884412  0.0363878    
0.14998      0.00554484   0.00089844   0.0369705    
0.15236      0.00572158   0.000912458  0.037553     
0.15474      0.00590106   0.000926465  0.0381353    
0.15712      0.00608327   0.000940461  0.0387173    
0.1595       0.00626821   0.000954446  0.0392991    
0.16188      0.00645588   0.000968419  0.0398806    
0.16426      0.00664627   0.000982381  0.0404619    
0.16664      0.00683939   0.000996332  0.0410429    
0.16902      0.00703524   0.00101027   0.0416237    
0.1714       0.0072338    0.0010242    0.0422042    
0.17378      0.00743508   0.00103811   0.0427844    
0.17616      0.00763907   0.00105201   0.0433644    
0.17854      0.00784578   0.0010659    0.0439441    
0.18092      0.0080552    0.00107978   0.0445235    
0.1833       0.00826732   0.00109365   0.0451027    
0.18568      0.00848215   0.0011075    0.0456815    
0.18806      0.00869968   0.00112134   0.0462601    
0.19044      0.00891991   0.00113516   0.0468384    
0.19282      0.00914284   0.00114897   0.0474165    
0.1952       0.00936847   0.00116277   0.0479942    
0.19758      0.00959678   0.00117655   0.0485716    
0.19996      0.00982779   0.00119032   0.0491488    
0.20234      0.0100615    0.00120408   0.0497256    
0.20472      0.0102979    0.00121782   0.0503021    
0.2071       0.0105369    0.00123155   0.0508784    
0.20948      0.0107786    0.00124526   0.0514543    
0.21186      0.0110231    0.00125896   0.0520299    
0.21424      0.0112701    0.00127264   0.0526052    
0.21662      0.0115199    0.00128631   0.0531802    
0.219        0.0117723    0.00129996   0.0537548    
0.22138      0.0120274    0.00131359   0.0543291    
0.22376      0.0122851    0.00132721   0.0549031    
0.22614      0.0125455    0.00134082   0.0554768    
0.22852      0.0128086    0.00135441   0.0560501    
0.2309       0.0130743    0.00136798   0.0566231    
0.23328      0.0133426    0.00138153   0.0571957    
0.23566      0.0136136    0.00139507   0.057768     
0.23804      0.0138873    0.0014086    0.05834      
0.24042      0.0141635    0.0014221    0.0589116    
0.2428       0.0144424    0.00143559   0.0594828    
0.24518      0.014724     0.00144906   0.0600537    
0.24756      0.0150081    0.00146251   0.0606242    
0.24994      0.0152949    0.00147595   0.0611944    
0.25232      0.0155843    0.00148937   0.0617642    
0.2547       0.0158764    0.00150277   0.0623336    
0.25708      0.016171     0.00151615   0.0629027    
0.25946      0.0164683    0.00152952   0.0634713    
0.26184      0.0167681    0.00154286   0.0640396    
0.26422      0.0170706    0.00155619   0.0646075    
0.2666       0.0173757    0.0015695    0.065175     
0.26898      0.0176833    0.00158279   0.0657421    
0.27136      0.0179936    0.00159606   0.0663089    
0.27374      0.0183064    0.00160932   0.0668752    
0.27612      0.0186218    0.00162255   0.0674411    
0.2785       0.0189399    0.00163576   0.0680067    
0.28088      0.0192604    0.00164896   0.0685718    
0.28326      0.0195836    0.00166213   0.0691365    
0.28564      0.0199093    0.00167529   0.0697008    
0.28802      0.0202376    0.00168842   0.0702646    
0.2904       0.0205685    0.00170153   0.0708281    
0.29278      0.0209019    0.00171463   0.0713911    
0.29516      0.0212379    0.0017277    0.0719537    
0.29754      0.0215764    0.00174075   0.0725159    
0.29992      0.0219174    0.00175378   0.0730776    
0.3023       0.022261     0.00176679   0.0736389    
0.30468      0.0226072    0.00177978   0.0741998    
0.30706      0.0229559    0.00179275   0.0747602    
0.30944      0.0233071    0.00180569   0.0753201    
0.31182      0.0236608    0.00181862   0.0758797    
0.3142       0.024017     0.00183152   0.0764387    
0.31658      0.0243758    0.0018444    0.0769973    
0.31896      0.0247371    0.00185726   0.0775555    
0.32134      0.0251009    0.0018701    0.0781131    
0.32372      0.0254672    0.00188291   0.0786704    
0.3261       0.025836     0.0018957    0.0792271    
0.32848      0.0262072    0.00190847   0.0797834    
0.33086      0.026581     0.00192121   0.0803392    
0.33324      0.0269573    0.00193394   0.0808945    
0.33562      0.027336     0.00194663   0.0814493    
0.338        0.0277172    0.00195931   0.0820036    
0.34038      0.0281009    0.00197196   0.0825575    
0.34276      0.0284871    0.00198459   0.0831108    
0.34514      0.0288757    0.00199719   0.0836637    
0.34752      0.0292668    0.00200977   0.0842161    
0.3499       0.0296603    0.00202233   0.0847679    
0.35228      0.0300563    0.00203486   0.0853193    
0.35466      0.0304547    0.00204737   0.0858701    
0.35704      0.0308556    0.00205985   0.0864204    
0.35942      0.0312588    0.00207231   0.0869703    
0.3618       0.0316646    0.00208474   0.0875196    
0.36418      0.0320727    0.00209715   0.0880683    
0.36656      0.0324833    0.00210953   0.0886166    
0.36894      0.0328963    0.00212189   0.0891643    
0.37132      0.0333117    0.00213422   0.0897115    
0.3737       0.0337295    0.00214653   0.0902581    
0.37608      0.0341497    0.00215881   0.0908042    
0.37846      0.0345722    0.00217106   0.0913498    
0.38084      0.0349972    0.00218329   0.0918948    
0.38322      0.0354246    0.00219549   0.0924393    
0.3856       0.0358543    0.00220767   0.0929832    
0.38798      0.0362865    0.00221981   0.0935266    
0.39036      0.0367209    0.00223194   0.0940694    
0.39274      0.0371578    0.00224403   0.0946117    
0.39512      0.037597     0.0022561    0.0951534    
0.3975       0.0380386    0.00226814   0.0956945    
0.39988      0.0384825    0.00228015   0.0962351    
0.40226      0.0389287    0.00229214   0.096775     
0.40464      0.0393773    0.0023041    0.0973144    
0.40702      0.0398282    0.00231603   0.0978533    
0.4094       0.0402815    0.00232793   0.0983915    
0.41178      0.040737     0.00233981   0.0989291    
0.41416      0.0411949    0.00235165   0.0994662    
0.41654      0.0416551    0.00236347   0.100003     
0.41892      0.0421176    0.00237526   0.100539     
0.4213       0.0425824    0.00238702   0.101074     
0.42368      0.0430495    0.00239875   0.101609     
0.42606      0.0435189    0.00241046   0.102143     
0.42844      0.0439905    0.00242213   0.102676     
0.43082      0.0444645    0.00243378   0.103209     
0.4332       0.0449407    0.00244539   0.103741     
0.43558      0.0454191    0.00245698   0.104273     
0.43796      0.0458999    0.00246853   0.104804     
0.44034      0.0463828    0.00248006   0.105334     
0.44272      0.0468681    0.00249156   0.105864     
0.4451       0.0473555    0.00250302   0.106393     
0.44748      0.0478452    0.00251446   0.106921     
0.44986      0.0483372    0.00252587   0.107449     
0.45224      0.0488313    0.00253724   0.107977     
0.45462      0.0493277    0.00254859   0.108503     
0.457        0.0498263    0.0025599    0.109029     
0.45938      0.0503271    0.00257119   0.109554     
0.46176      0.05083      0.00258244   0.110079     
0.46414      0.0513352    0.00259366   0.110603     
0.46652      0.0518426    0.00260485   0.111126     
0.4689       0.0523521    0.00261601   0.111649     
0.47128      0.0528639    0.00262713   0.112171     
0.47366      0.0533778    0.00263823   0.112692     
0.47604      0.0538938    0.00264929   0.113213     
0.47842      0.054412     0.00266032   0.113733     
0.4808       0.0549324    0.00267132   0.114252     
0.48318      0.0554549    0.00268229   0.114771     
0.48556      0.0559795    0.00269322   0.115289     
0.48794      0.0565063    0.00270413   0.115806     
0.49032      0.0570352    0.00271499   0.116322     
0.4927       0.0575662    0.00272583   0.116838     
0.49508      0.0580994    0.00273663   0.117354     
0.49746      0.0586346    0.0027474    0.117868     
0.49984      0.0591719    0.00275814   0.118382     
0.50222      0.0597114    0.00276884   0.118895     
0.5046       0.0602529    0.00277951   0.119407     
0.50698      0.0607965    0.00279015   0.119919     
0.50936      0.0613422    0.00280075   0.12043      
0.51174      0.0618899    0.00281132   0.12094      
0.51412      0.0624397    0.00282186   0.12145      
0.5165       0.0629915    0.00283236   0.121958     
0.51888      0.0635454    0.00284282   0.122466     
0.52126      0.0641013    0.00285326   0.122974     
0.52364      0.0646593    0.00286365   0.12348      
0.52602      0.0652193    0.00287402   0.123986     
0.5284       0.0657813    0.00288434   0.124492     
0.53078      0.0663453    0.00289464   0.124996     
0.53316      0.0669114    0.00290489   0.1255       
0.53554      0.0674794    0.00291512   0.126003     
0.53792      0.0680494    0.00292531   0.126505     
0.5403       0.0686214    0.00293546   0.127006     
0.54268      0.0691954    0.00294557   0.127507     
0.54506      0.0697714    0.00295565   0.128007     
0.54744      0.0703493    0.0029657    0.128506     
0.54982      0.0709291    0.00297571   0.129004     
0.5522       0.071511     0.00298568   0.129502     
0.55458      0.0720947    0.00299562   0.129999     
0.55696      0.0726804    0.00300552   0.130495     
0.55934      0.0732681    0.00301538   0.13099      
0.56172      0.0738576    0.00302521   0.131485     
0.5641       0.0744491    0.003035     0.131979     
0.56648      0.0750425    0.00304475   0.132472     
0.56886      0.0756378    0.00305447   0.132964     
0.57124      0.0762349    0.00306415   0.133455     
0.57362      0.076834     0.00307379   0.133946     
0.576        0.0774349    0.0030834    0.134436     
0.57838      0.0780377    0.00309297   0.134925     
0.58076      0.0786424    0.0031025    0.135413     
0.58314      0.0792489    0.00311199   0.1359       
0.58552      0.0798573    0.00312144   0.136387     
0.5879       0.0804675    0.00313086   0.136873     
0.59028      0.0810796    0.00314024   0.137358     
0.59266      0.0816935    0.00314958   0.137842     
0.59504      0.0823092    0.00315888   0.138325     
0.59742      0.0829267    0.00316815   0.138808     
0.5998       0.083546     0.00317737   0.13929      
0.60218      0.0841671    0.00318656   0.139771     
0.60456      0.08479      0.00319571   0.140251     
0.60694      0.0854147    0.00320482   0.14073      
0.60932      0.0860412    0.00321389   0.141208     
0.6117       0.0866694    0.00322292   0.141686     
0.61408      0.0872994    0.00323191   0.142163     
0.61646      0.0879311    0.00324087   0.142639     
0.61884      0.0885646    0.00324978   0.143114     
0.62122      0.0891998    0.00325865   0.143588     
0.6236       0.0898368    0.00326749   0.144062     
0.62598      0.0904754    0.00327628   0.144534     
0.62836      0.0911158    0.00328504   0.145006     
0.63074      0.0917579    0.00329375   0.145477     
0.63312      0.0924017    0.00330243   0.145947     
0.6355       0.0930471    0.00331106   0.146416     
0.63788      0.0936943    0.00331966   0.146884     
0.64026      0.0943431    0.00332821   0.147351     
0.64264      0.0949936    0.00333672   0.147818     
0.64502      0.0956457    0.0033452    0.148283     
0.6474       0.0962995    0.00335363   0.148748     
0.64978      0.096955     0.00336202   0.149212     
0.65216      0.0976121    0.00337037   0.149675     
0.65454      0.0982708    0.00337868   0.150137     
0.65692      0.0989311    0.00338694   0.150598     
0.6593       0.099593     0.00339517   0.151059     
0.66168      0.100257     0.00340336   0.151518     
0.66406      0.100922     0.0034115    0.151977     
0.66644      0.101588     0.0034196    0.152434     
0.66882      0.102257     0.00342766   0.152891     
0.6712       0.102927     0.00343568   0.153347     
0.67358      0.103598     0.00344366   0.153802     
0.67596      0.104271     0.00345159   0.154256     
0.67834      0.104945     0.00345948   0.154709     
0.68072      0.105621     0.00346733   0.155161     
0.6831       0.106299     0.00347514   0.155613     
0.68548      0.106978     0.00348291   0.156063     
0.68786      0.107659     0.00349063   0.156513     
0.69024      0.108341     0.00349831   0.156961     
0.69262      0.109024     0.00350595   0.157409     
0.695        0.10971      0.00351354   0.157855     
0.69738      0.110396     0.00352109   0.158301     
0.69976      0.111084     0.0035286    0.158746     
0.70214      0.111774     0.00353607   0.15919      
0.70452      0.112465     0.00354349   0.159633     
0.7069       0.113157     0.00355087   0.160075     
0.70928      0.113851     0.0035582    0.160516     
0.71166      0.114546     0.00356549   0.160956     
0.71404      0.115243     0.00357274   0.161395     
0.71642      0.115941     0.00357995   0.161834     
0.7188       0.11664      0.00358711   0.162271     
0.72118      0.117341     0.00359422   0.162707     
0.72356      0.118044     0.0036013    0.163143     
0.72594      0.118747     0.00360832   0.163577     
0.72832      0.119452     0.00361531   0.164011     
0.7307       0.120159     0.00362225   0.164443     
0.73308      0.120866     0.00362915   0.164875     
0.73546      0.121575     0.003636     0.165305     
0.73784      0.122286     0.0036428    0.165735     
0.74022      0.122998     0.00364957   0.166164     
0.7426       0.123711     0.00365628   0.166591     
0.74498      0.124425     0.00366296   0.167018     
0.74736      0.125141     0.00366958   0.167444     
0.74974      0.125858     0.00367617   0.167868     
0.75212      0.126576     0.0036827    0.168292     
0.7545       0.127295     0.0036892    0.168715     
0.75688      0.128016     0.00369564   0.169136     
0.75926      0.128738     0.00370204   0.169557     
0.76164      0.129461     0.0037084    0.169977     
0.76402      0.130186     0.00371471   0.170396     
0.7664       0.130911     0.00372098   0.170814     
0.76878      0.131638     0.0037272    0.17123      
0.77116      0.132367     0.00373337   0.171646     
0.77354      0.133096     0.0037395    0.172061     
0.77592      0.133826     0.00374558   0.172475     
0.7783       0.134558     0.00375161   0.172887     
0.78068      0.135291     0.0037576    0.173299     
0.78306      0.136025     0.00376355   0.17371      
0.78544      0.13676      0.00376944   0.174119     
0.78782      0.137497     0.0037753    0.174528     
0.7902       0.138234     0.0037811    0.174936     
0.79258      0.138973     0.00378686   0.175342     
0.79496      0.139713     0.00379257   0.175748     
0.79734      0.140453     0.00379823   0.176152     
0.79972      0.141195     0.00380385   0.176556     
0.8021       0.141938     0.00380942   0.176958     
0.80448      0.142683     0.00381495   0.17736      
0.80686      0.143428     0.00382042   0.17776      
0.80924      0.144174     0.00382585   0.17816      
0.81162      0.144921     0.00383123   0.178558     
0.814        0.14567      0.00383657   0.178955     
0.81638      0.146419     0.00384186   0.179352     
0.81876      0.14717      0.0038471    0.179747     
0.82114      0.147921     0.00385229   0.180141     
0.82352      0.148673     0.00385744   0.180534     
0.8259       0.149427     0.00386254   0.180926     
0.82828      0.150181     0.00386759   0.181317     
0.83066      0.150937     0.00387259   0.181707     
0.83304      0.151693     0.00387755   0.182096     
0.83542      0.152451     0.00388245   0.182484     
0.8378       0.153209     0.00388731   0.182871     
0.84018      0.153968     0.00389212   0.183256     
0.84256      0.154728     0.00389689   0.183641     
0.84494      0.155489     0.0039016    0.184024     
0.84732      0.156252     0.00390627   0.184407     
0.8497       0.157014     0.00391089   0.184788     
0.85208      0.157778     0.00391546   0.185168     
0.85446      0.158543     0.00391998   0.185548     
0.85684      0.159309     0.00392445   0.185926     
0.85922      0.160075     0.00392887   0.186303     
0.8616       0.160842     0.00393325   0.186679     
0.86398      0.161611     0.00393758   0.187054     
0.86636      0.16238      0.00394186   0.187427     
0.86874      0.16315      0.00394609   0.1878       
0.87112      0.16392      0.00395027   0.188172     
0.8735       0.164692     0.0039544    0.188542     
0.87588      0.165464     0.00395848   0.188912     
0.87826      0.166237     0.00396251   0.18928      
0.88064      0.167011     0.0039665    0.189647     
0.88302      0.167786     0.00397043   0.190013     
0.8854       0.168561     0.00397432   0.190378     
0.88778      0.169337     0.00397816   0.190742     
0.89016      0.170114     0.00398194   0.191105     
0.89254      0.170892     0.00398568   0.191467     
0.89492      0.17167      0.00398937   0.191827     
0.8973       0.172449     0.00399301   0.192187     
0.89968      0.173229     0.0039966    0.192545     
0.90206      0.174009     0.00400014   0.192902     
0.90444      0.174791     0.00400363   0.193258     
0.90682      0.175572     0.00400707   0.193613     
0.9092       0.176355     0.00401046   0.193967     
0.91158      0.177138     0.0040138    0.19432      
0.91396      0.177922     0.00401709   0.194671     
0.91634      0.178706     0.00402033   0.195022     
0.91872      0.179491     0.00402352   0.195371     
0.9211       0.180277     0.00402666   0.195719     
0.92348      0.181063     0.00402975   0.196066     
0.92586      0.18185      0.00403279   0.196412     
0.92824      0.182638     0.00403578   0.196757     
0.93062      0.183426     0.00403872   0.197101     
0.933        0.184214     0.00404161   0.197443     
0.93538      0.185004     0.00404445   0.197784     
0.93776      0.185793     0.00404723   0.198125     
0.94014      0.186584     0.00404997   0.198464     
0.94252      0.187374     0.00405266   0.198802     
0.9449       0.188166     0.0040553    0.199138     
0.94728      0.188958     0.00405788   0.199474     
0.94966      0.18975      0.00406042   0.199808     
0.95204      0.190543     0.0040629    0.200142     
0.95442      0.191336     0.00406534   0.200474     
0.9568       0.19213      0.00406772   0.200805     
0.95918      0.192924     0.00407005   0.201134     
0.96156      0.193719     0.00407233   0.201463     
0.96394      0.194514     0.00407456   0.20179      
0.96632      0.195309     0.00407674   0.202117     
0.9687       0.196105     0.00407887   0.202442     
0.97108      0.196902     0.00408095   0.202766     
0.97346      0.197699     0.00408297   0.203089     
0.97584      0.198496     0.00408495   0.20341      
0.97822      0.199293     0.00408687   0.203731     
0.9806       0.200091     0.00408875   0.20405      
0.98298      0.20089      0.00409057   0.204368     
