# Mass = 0.0479598 Mev*(hbarc)^2/2 
# R = 7.46549 fm 
# a = 0.662 fm 
# V0 = 59.5746 MeV 
# RSO = 6.86114 fm 
# aSO = 0.662 fm 
# VSO = 27.9312 MeV fm^2
# n = 0 
# l = 5 
# two_j = 11 
# two_t = 1 
# Energy = -27.9845 MeV
# r          u            Phi          u/r          
0.1          1.75473e-10  6.79545e-12  1.75473e-09  
0.10238      2.02068e-10  7.64308e-12  1.97371e-09  
0.10476      2.3194e-10   8.57328e-12  2.21401e-09  
0.10714      2.65403e-10  9.59193e-12  2.47716e-09  
0.10952      3.02795e-10  1.07052e-11  2.76474e-09  
0.1119       3.44476e-10  1.19194e-11  3.07842e-09  
0.11428      3.90831e-10  1.32415e-11  3.41994e-09  
0.11666      4.4227e-10   1.46783e-11  3.7911e-09   
0.11904      4.9923e-10   1.62371e-11  4.1938e-09   
0.12142      5.62174e-10  1.79257e-11  4.63e-09     
0.1238       6.31597e-10  1.97518e-11  5.10175e-09  
0.12618      7.08019e-10  2.17238e-11  5.61118e-09  
0.12856      7.91994e-10  2.38501e-11  6.1605e-09   
0.13094      8.84109e-10  2.61398e-11  6.75202e-09  
0.13332      9.84982e-10  2.86019e-11  7.3881e-09   
0.1357       1.09527e-09  3.12461e-11  8.07123e-09  
0.13808      1.21565e-09  3.40823e-11  8.80396e-09  
0.14046      1.34686e-09  3.71206e-11  9.58895e-09  
0.14284      1.48967e-09  4.03718e-11  1.04289e-08  
0.14522      1.64487e-09  4.38468e-11  1.13268e-08  
0.1476       1.81332e-09  4.75569e-11  1.22854e-08  
0.14998      1.9959e-09   5.15139e-11  1.33078e-08  
0.15236      2.19354e-09  5.57299e-11  1.43971e-08  
0.15474      2.40723e-09  6.02174e-11  1.55566e-08  
0.15712      2.63798e-09  6.49892e-11  1.67896e-08  
0.1595       2.88687e-09  7.00586e-11  1.80995e-08  
0.16188      3.15503e-09  7.54394e-11  1.94899e-08  
0.16426      3.44362e-09  8.11456e-11  2.09645e-08  
0.16664      3.75388e-09  8.71918e-11  2.25269e-08  
0.16902      4.08708e-09  9.35929e-11  2.41811e-08  
0.1714       4.44456e-09  1.00364e-10  2.59309e-08  
0.17378      4.82772e-09  1.07522e-10  2.77806e-08  
0.17616      5.23801e-09  1.15082e-10  2.97344e-08  
0.17854      5.67694e-09  1.2306e-10   3.17964e-08  
0.18092      6.14609e-09  1.31475e-10  3.39713e-08  
0.1833       6.6471e-09   1.40344e-10  3.62635e-08  
0.18568      7.18168e-09  1.49685e-10  3.86777e-08  
0.18806      7.7516e-09   1.59516e-10  4.12187e-08  
0.19044      8.3587e-09   1.69857e-10  4.38915e-08  
0.19282      9.0049e-09   1.80727e-10  4.67011e-08  
0.1952       9.69219e-09  1.92145e-10  4.96526e-08  
0.19758      1.04226e-08  2.04133e-10  5.27515e-08  
0.19996      1.11984e-08  2.16712e-10  5.6003e-08   
0.20234      1.20216e-08  2.29902e-10  5.94128e-08  
0.20472      1.28946e-08  2.43727e-10  6.29866e-08  
0.2071       1.38198e-08  2.58208e-10  6.67302e-08  
0.20948      1.47997e-08  2.73368e-10  7.06496e-08  
0.21186      1.58367e-08  2.89232e-10  7.47509e-08  
0.21424      1.69336e-08  3.05823e-10  7.90403e-08  
0.21662      1.8093e-08   3.23165e-10  8.35242e-08  
0.219        1.93178e-08  3.41285e-10  8.82092e-08  
0.22138      2.06109e-08  3.60208e-10  9.3102e-08   
0.22376      2.19753e-08  3.7996e-10   9.82093e-08  
0.22614      2.34141e-08  4.00568e-10  1.03538e-07  
0.22852      2.49305e-08  4.2206e-10   1.09095e-07  
0.2309       2.65278e-08  4.44463e-10  1.14889e-07  
0.23328      2.82095e-08  4.67807e-10  1.20925e-07  
0.23566      2.9979e-08   4.9212e-10   1.27213e-07  
0.23804      3.184e-08    5.17432e-10  1.33759e-07  
0.24042      3.37962e-08  5.43773e-10  1.40571e-07  
0.2428       3.58515e-08  5.71175e-10  1.47659e-07  
0.24518      3.80098e-08  5.99669e-10  1.55028e-07  
0.24756      4.02753e-08  6.29288e-10  1.62689e-07  
0.24994      4.26521e-08  6.60064e-10  1.70649e-07  
0.25232      4.51446e-08  6.9203e-10   1.78918e-07  
0.2547       4.77572e-08  7.25221e-10  1.87504e-07  
0.25708      5.04945e-08  7.59672e-10  1.96415e-07  
0.25946      5.33612e-08  7.95417e-10  2.05663e-07  
0.26184      5.63622e-08  8.32494e-10  2.15254e-07  
0.26422      5.95023e-08  8.70938e-10  2.252e-07    
0.2666       6.27869e-08  9.10787e-10  2.3551e-07   
0.26898      6.6221e-08   9.52079e-10  2.46193e-07  
0.27136      6.98101e-08  9.94853e-10  2.5726e-07   
0.27374      7.35597e-08  1.03915e-09  2.68721e-07  
0.27612      7.74755e-08  1.085e-09    2.80586e-07  
0.2785       8.15633e-08  1.13246e-09  2.92866e-07  
0.28088      8.58291e-08  1.18156e-09  3.05572e-07  
0.28326      9.02791e-08  1.23235e-09  3.18715e-07  
0.28564      9.49196e-08  1.28486e-09  3.32305e-07  
0.28802      9.97569e-08  1.33915e-09  3.46354e-07  
0.2904       1.04798e-07  1.39525e-09  3.60874e-07  
0.29278      1.10049e-07  1.45321e-09  3.75875e-07  
0.29516      1.15517e-07  1.51308e-09  3.91371e-07  
0.29754      1.2121e-07   1.5749e-09   4.07373e-07  
0.29992      1.27134e-07  1.63872e-09  4.23894e-07  
0.3023       1.33298e-07  1.70459e-09  4.40945e-07  
0.30468      1.39708e-07  1.77256e-09  4.58539e-07  
0.30706      1.46372e-07  1.84267e-09  4.7669e-07   
0.30944      1.533e-07    1.91498e-09  4.9541e-07   
0.31182      1.60498e-07  1.98954e-09  5.14713e-07  
0.3142       1.67975e-07  2.06639e-09  5.34612e-07  
0.31658      1.7574e-07   2.1456e-09   5.5512e-07   
0.31896      1.83801e-07  2.22721e-09  5.76252e-07  
0.32134      1.92168e-07  2.31128e-09  5.98021e-07  
0.32372      2.0085e-07   2.39786e-09  6.20442e-07  
0.3261       2.09855e-07  2.48701e-09  6.43529e-07  
0.32848      2.19194e-07  2.57879e-09  6.67298e-07  
0.33086      2.28876e-07  2.67325e-09  6.91762e-07  
0.33324      2.38912e-07  2.77045e-09  7.16937e-07  
0.33562      2.49311e-07  2.87045e-09  7.42838e-07  
0.338        2.60084e-07  2.97331e-09  7.6948e-07   
0.34038      2.71242e-07  3.07909e-09  7.96881e-07  
0.34276      2.82796e-07  3.18785e-09  8.25055e-07  
0.34514      2.94756e-07  3.29965e-09  8.54018e-07  
0.34752      3.07134e-07  3.41456e-09  8.83787e-07  
0.3499       3.19941e-07  3.53264e-09  9.14379e-07  
0.35228      3.3319e-07   3.65396e-09  9.45811e-07  
0.35466      3.46893e-07  3.77857e-09  9.78099e-07  
0.35704      3.6106e-07   3.90655e-09  1.01126e-06  
0.35942      3.75707e-07  4.03797e-09  1.04531e-06  
0.3618       3.90844e-07  4.17288e-09  1.08028e-06  
0.36418      4.06485e-07  4.31137e-09  1.11617e-06  
0.36656      4.22644e-07  4.4535e-09   1.153e-06    
0.36894      4.39333e-07  4.59934e-09  1.1908e-06   
0.37132      4.56568e-07  4.74897e-09  1.22958e-06  
0.3737       4.74361e-07  4.90245e-09  1.26936e-06  
0.37608      4.92727e-07  5.05986e-09  1.31017e-06  
0.37846      5.11681e-07  5.22127e-09  1.35201e-06  
0.38084      5.31238e-07  5.38677e-09  1.39491e-06  
0.38322      5.51412e-07  5.55641e-09  1.43889e-06  
0.3856       5.7222e-07   5.73029e-09  1.48397e-06  
0.38798      5.93677e-07  5.90849e-09  1.53018e-06  
0.39036      6.158e-07    6.09107e-09  1.57752e-06  
0.39274      6.38603e-07  6.27812e-09  1.62602e-06  
0.39512      6.62105e-07  6.46972e-09  1.67571e-06  
0.3975       6.86322e-07  6.66595e-09  1.7266e-06   
0.39988      7.11271e-07  6.8669e-09   1.77871e-06  
0.40226      7.36969e-07  7.07265e-09  1.83207e-06  
0.40464      7.63436e-07  7.28328e-09  1.8867e-06   
0.40702      7.90688e-07  7.49888e-09  1.94263e-06  
0.4094       8.18745e-07  7.71953e-09  1.99987e-06  
0.41178      8.47624e-07  7.94533e-09  2.05844e-06  
0.41416      8.77346e-07  8.17636e-09  2.11838e-06  
0.41654      9.0793e-07   8.4127e-09   2.17969e-06  
0.41892      9.39395e-07  8.65447e-09  2.24242e-06  
0.4213       9.71761e-07  8.90173e-09  2.30658e-06  
0.42368      1.00505e-06  9.15459e-09  2.37219e-06  
0.42606      1.03928e-06  9.41314e-09  2.43928e-06  
0.42844      1.07448e-06  9.67747e-09  2.50788e-06  
0.43082      1.11066e-06  9.94768e-09  2.57801e-06  
0.4332       1.14785e-06  1.02239e-08  2.64969e-06  
0.43558      1.18606e-06  1.05061e-08  2.72295e-06  
0.43796      1.22533e-06  1.07946e-08  2.79782e-06  
0.44034      1.26568e-06  1.10893e-08  2.87432e-06  
0.44272      1.30712e-06  1.13903e-08  2.95248e-06  
0.4451       1.34969e-06  1.16979e-08  3.03233e-06  
0.44748      1.3934e-06   1.2012e-08   3.11388e-06  
0.44986      1.43828e-06  1.23328e-08  3.19718e-06  
0.45224      1.48436e-06  1.26604e-08  3.28224e-06  
0.45462      1.53166e-06  1.29949e-08  3.3691e-06   
0.457        1.5802e-06   1.33363e-08  3.45778e-06  
0.45938      1.63002e-06  1.36849e-08  3.5483e-06   
0.46176      1.68114e-06  1.40407e-08  3.64071e-06  
0.46414      1.73358e-06  1.44038e-08  3.73503e-06  
0.46652      1.78737e-06  1.47744e-08  3.83128e-06  
0.4689       1.84254e-06  1.51525e-08  3.9295e-06   
0.47128      1.89913e-06  1.55382e-08  4.02972e-06  
0.47366      1.95714e-06  1.59318e-08  4.13196e-06  
0.47604      2.01663e-06  1.63332e-08  4.23626e-06  
0.47842      2.07761e-06  1.67426e-08  4.34264e-06  
0.4808       2.14011e-06  1.71602e-08  4.45115e-06  
0.48318      2.20417e-06  1.7586e-08   4.5618e-06   
0.48556      2.26982e-06  1.80202e-08  4.67463e-06  
0.48794      2.33708e-06  1.84628e-08  4.78968e-06  
0.49032      2.40599e-06  1.89141e-08  4.90697e-06  
0.4927       2.47657e-06  1.9374e-08   5.02654e-06  
0.49508      2.54888e-06  1.98429e-08  5.14841e-06  
0.49746      2.62292e-06  2.03207e-08  5.27263e-06  
0.49984      2.69875e-06  2.08076e-08  5.39922e-06  
0.50222      2.77639e-06  2.13038e-08  5.52822e-06  
0.5046       2.85587e-06  2.18093e-08  5.65967e-06  
0.50698      2.93724e-06  2.23243e-08  5.79359e-06  
0.50936      3.02052e-06  2.28489e-08  5.93003e-06  
0.51174      3.10575e-06  2.33833e-08  6.06901e-06  
0.51412      3.19298e-06  2.39276e-08  6.21057e-06  
0.5165       3.28223e-06  2.44819e-08  6.35475e-06  
0.51888      3.37354e-06  2.50464e-08  6.50158e-06  
0.52126      3.46695e-06  2.56211e-08  6.6511e-06   
0.52364      3.5625e-06   2.62063e-08  6.80334e-06  
0.52602      3.66023e-06  2.68021e-08  6.95835e-06  
0.5284       3.76017e-06  2.74086e-08  7.11615e-06  
0.53078      3.86238e-06  2.80259e-08  7.27679e-06  
0.53316      3.96687e-06  2.86542e-08  7.44031e-06  
0.53554      4.07371e-06  2.92937e-08  7.60673e-06  
0.53792      4.18292e-06  2.99445e-08  7.7761e-06   
0.5403       4.29456e-06  3.06067e-08  7.94847e-06  
0.54268      4.40865e-06  3.12804e-08  8.12385e-06  
0.54506      4.52526e-06  3.19659e-08  8.30231e-06  
0.54744      4.64441e-06  3.26633e-08  8.48387e-06  
0.54982      4.76616e-06  3.33727e-08  8.66858e-06  
0.5522       4.89054e-06  3.40943e-08  8.85647e-06  
0.55458      5.01761e-06  3.48283e-08  9.04759e-06  
0.55696      5.14741e-06  3.55747e-08  9.24197e-06  
0.55934      5.27998e-06  3.63338e-08  9.43966e-06  
0.56172      5.41538e-06  3.71057e-08  9.64071e-06  
0.5641       5.55364e-06  3.78905e-08  9.84514e-06  
0.56648      5.69483e-06  3.86885e-08  1.0053e-05   
0.56886      5.83898e-06  3.94997e-08  1.02644e-05  
0.57124      5.98615e-06  4.03244e-08  1.04792e-05  
0.57362      6.13638e-06  4.11627e-08  1.06976e-05  
0.576        6.28973e-06  4.20148e-08  1.09197e-05  
0.57838      6.44625e-06  4.28808e-08  1.11453e-05  
0.58076      6.60598e-06  4.37609e-08  1.13747e-05  
0.58314      6.76899e-06  4.46553e-08  1.16078e-05  
0.58552      6.93532e-06  4.55642e-08  1.18447e-05  
0.5879       7.10504e-06  4.64876e-08  1.20854e-05  
0.59028      7.27818e-06  4.74258e-08  1.233e-05    
0.59266      7.45481e-06  4.8379e-08   1.25786e-05  
0.59504      7.63498e-06  4.93474e-08  1.2831e-05   
0.59742      7.81875e-06  5.0331e-08   1.30875e-05  
0.5998       8.00618e-06  5.13302e-08  1.33481e-05  
0.60218      8.19732e-06  5.2345e-08   1.36127e-05  
0.60456      8.39223e-06  5.33756e-08  1.38816e-05  
0.60694      8.59098e-06  5.44223e-08  1.41546e-05  
0.60932      8.79361e-06  5.54852e-08  1.44318e-05  
0.6117       9.00019e-06  5.65644e-08  1.47134e-05  
0.61408      9.21078e-06  5.76603e-08  1.49993e-05  
0.61646      9.42544e-06  5.87729e-08  1.52896e-05  
0.61884      9.64424e-06  5.99025e-08  1.55844e-05  
0.62122      9.86723e-06  6.10492e-08  1.58836e-05  
0.6236       1.00945e-05  6.22132e-08  1.61874e-05  
0.62598      1.03261e-05  6.33948e-08  1.64958e-05  
0.62836      1.0562e-05   6.4594e-08   1.68089e-05  
0.63074      1.08024e-05  6.58112e-08  1.71266e-05  
0.63312      1.10474e-05  6.70465e-08  1.74491e-05  
0.6355       1.12969e-05  6.83001e-08  1.77764e-05  
0.63788      1.15511e-05  6.95721e-08  1.81086e-05  
0.64026      1.181e-05    7.08629e-08  1.84457e-05  
0.64264      1.20737e-05  7.21726e-08  1.87877e-05  
0.64502      1.23423e-05  7.35013e-08  1.91348e-05  
0.6474       1.26158e-05  7.48494e-08  1.94869e-05  
0.64978      1.28943e-05  7.6217e-08   1.98441e-05  
0.65216      1.31779e-05  7.76043e-08  2.02066e-05  
0.65454      1.34667e-05  7.90115e-08  2.05743e-05  
0.65692      1.37606e-05  8.04388e-08  2.09472e-05  
0.6593       1.40599e-05  8.18865e-08  2.13255e-05  
0.66168      1.43646e-05  8.33547e-08  2.17092e-05  
0.66406      1.46747e-05  8.48436e-08  2.20984e-05  
0.66644      1.49903e-05  8.63536e-08  2.24931e-05  
0.66882      1.53115e-05  8.78847e-08  2.28933e-05  
0.6712       1.56384e-05  8.94373e-08  2.32992e-05  
0.67358      1.59711e-05  9.10114e-08  2.37108e-05  
0.67596      1.63097e-05  9.26074e-08  2.41282e-05  
0.67834      1.66541e-05  9.42255e-08  2.45513e-05  
0.68072      1.70046e-05  9.58659e-08  2.49803e-05  
0.6831       1.73611e-05  9.75287e-08  2.54152e-05  
0.68548      1.77239e-05  9.92143e-08  2.58561e-05  
0.68786      1.80929e-05  1.00923e-07  2.63031e-05  
0.69024      1.84682e-05  1.02655e-07  2.67562e-05  
0.69262      1.88499e-05  1.0441e-07   2.72154e-05  
0.695        1.92382e-05  1.06189e-07  2.76809e-05  
0.69738      1.96331e-05  1.07991e-07  2.81526e-05  
0.69976      2.00346e-05  1.09818e-07  2.86307e-05  
0.70214      2.0443e-05   1.11669e-07  2.91153e-05  
0.70452      2.08582e-05  1.13545e-07  2.96063e-05  
0.7069       2.12804e-05  1.15445e-07  3.01038e-05  
0.70928      2.17096e-05  1.17371e-07  3.0608e-05   
0.71166      2.2146e-05   1.19322e-07  3.11188e-05  
0.71404      2.25896e-05  1.21298e-07  3.16364e-05  
0.71642      2.30406e-05  1.233e-07    3.21607e-05  
0.7188       2.3499e-05   1.25329e-07  3.2692e-05   
0.72118      2.39649e-05  1.27383e-07  3.32301e-05  
0.72356      2.44384e-05  1.29464e-07  3.37753e-05  
0.72594      2.49197e-05  1.31572e-07  3.43275e-05  
0.72832      2.54088e-05  1.33706e-07  3.48868e-05  
0.7307       2.59058e-05  1.35868e-07  3.54534e-05  
0.73308      2.64108e-05  1.38058e-07  3.60272e-05  
0.73546      2.6924e-05   1.40275e-07  3.66083e-05  
0.73784      2.74453e-05  1.4252e-07   3.71969e-05  
0.74022      2.79751e-05  1.44794e-07  3.77929e-05  
0.7426       2.85132e-05  1.47096e-07  3.83965e-05  
0.74498      2.90599e-05  1.49427e-07  3.90076e-05  
0.74736      2.96152e-05  1.51787e-07  3.96265e-05  
0.74974      3.01793e-05  1.54176e-07  4.02531e-05  
0.75212      3.07523e-05  1.56595e-07  4.08875e-05  
0.7545       3.13342e-05  1.59044e-07  4.15298e-05  
0.75688      3.19252e-05  1.61522e-07  4.218e-05    
0.75926      3.25254e-05  1.64031e-07  4.28384e-05  
0.76164      3.3135e-05   1.66571e-07  4.35048e-05  
0.76402      3.37539e-05  1.69142e-07  4.41794e-05  
0.7664       3.43824e-05  1.71744e-07  4.48622e-05  
0.76878      3.50205e-05  1.74377e-07  4.55534e-05  
0.77116      3.56684e-05  1.77042e-07  4.6253e-05   
0.77354      3.63262e-05  1.79739e-07  4.6961e-05   
0.77592      3.6994e-05   1.82469e-07  4.76776e-05  
0.7783       3.76719e-05  1.85231e-07  4.84028e-05  
0.78068      3.83601e-05  1.88025e-07  4.91368e-05  
0.78306      3.90586e-05  1.90853e-07  4.98795e-05  
0.78544      3.97676e-05  1.93715e-07  5.0631e-05   
0.78782      4.04873e-05  1.9661e-07   5.13915e-05  
0.7902       4.12176e-05  1.99539e-07  5.2161e-05   
0.79258      4.19589e-05  2.02502e-07  5.29396e-05  
0.79496      4.27111e-05  2.055e-07    5.37273e-05  
0.79734      4.34744e-05  2.08532e-07  5.45243e-05  
0.79972      4.4249e-05   2.116e-07    5.53306e-05  
0.8021       4.5035e-05   2.14703e-07  5.61463e-05  
0.80448      4.58324e-05  2.17842e-07  5.69715e-05  
0.80686      4.66415e-05  2.21017e-07  5.78062e-05  
0.80924      4.74624e-05  2.24229e-07  5.86506e-05  
0.81162      4.82952e-05  2.27477e-07  5.95047e-05  
0.814        4.91401e-05  2.30761e-07  6.03686e-05  
0.81638      4.99971e-05  2.34083e-07  6.12424e-05  
0.81876      5.08664e-05  2.37443e-07  6.21262e-05  
0.82114      5.17482e-05  2.4084e-07   6.302e-05    
0.82352      5.26426e-05  2.44276e-07  6.39239e-05  
0.8259       5.35498e-05  2.4775e-07   6.48381e-05  
0.82828      5.44698e-05  2.51262e-07  6.57625e-05  
0.83066      5.54028e-05  2.54814e-07  6.66973e-05  
0.83304      5.6349e-05   2.58405e-07  6.76426e-05  
0.83542      5.73085e-05  2.62036e-07  6.85985e-05  
0.8378       5.82815e-05  2.65707e-07  6.9565e-05   
0.84018      5.92681e-05  2.69418e-07  7.05422e-05  
0.84256      6.02685e-05  2.73169e-07  7.15302e-05  
0.84494      6.12827e-05  2.76962e-07  7.25291e-05  
0.84732      6.23111e-05  2.80796e-07  7.3539e-05   
0.8497       6.33536e-05  2.84671e-07  7.456e-05    
0.85208      6.44105e-05  2.88589e-07  7.55921e-05  
0.85446      6.54819e-05  2.92548e-07  7.66354e-05  
0.85684      6.6568e-05   2.9655e-07   7.76902e-05  
0.85922      6.7669e-05   3.00595e-07  7.87563e-05  
0.8616       6.87849e-05  3.04684e-07  7.98339e-05  
0.86398      6.9916e-05   3.08815e-07  8.09232e-05  
0.86636      7.10624e-05  3.12991e-07  8.20241e-05  
0.86874      7.22243e-05  3.17211e-07  8.31368e-05  
0.87112      7.34018e-05  3.21475e-07  8.42614e-05  
0.8735       7.45952e-05  3.25785e-07  8.5398e-05   
0.87588      7.58045e-05  3.30139e-07  8.65466e-05  
0.87826      7.70299e-05  3.34539e-07  8.77074e-05  
0.88064      7.82717e-05  3.38985e-07  8.88805e-05  
0.88302      7.95299e-05  3.43477e-07  9.00658e-05  
0.8854       8.08048e-05  3.48016e-07  9.12636e-05  
0.88778      8.20965e-05  3.52601e-07  9.24739e-05  
0.89016      8.34052e-05  3.57234e-07  9.36969e-05  
0.89254      8.47311e-05  3.61915e-07  9.49326e-05  
0.89492      8.60743e-05  3.66643e-07  9.6181e-05   
0.8973       8.74351e-05  3.7142e-07   9.74424e-05  
0.89968      8.88135e-05  3.76245e-07  9.87168e-05  
0.90206      9.02099e-05  3.8112e-07   0.000100004  
0.90444      9.16243e-05  3.86043e-07  0.000101305  
0.90682      9.30569e-05  3.91017e-07  0.000102619  
0.9092       9.4508e-05   3.9604e-07   0.000103946  
0.91158      9.59777e-05  4.01114e-07  0.000105287  
0.91396      9.74662e-05  4.06239e-07  0.000106642  
0.91634      9.89737e-05  4.11415e-07  0.00010801   
0.91872      0.0001005    4.16642e-07  0.000109392  
0.9211       0.000102046  4.21922e-07  0.000110788  
0.92348      0.000103612  4.27253e-07  0.000112197  
0.92586      0.000105197  4.32637e-07  0.000113621  
0.92824      0.000106803  4.38074e-07  0.000115059  
0.93062      0.000108428  4.43565e-07  0.000116512  
0.933        0.000110074  4.49109e-07  0.000117978  
0.93538      0.00011174   4.54707e-07  0.00011946   
0.93776      0.000113427  4.6036e-07   0.000120956  
0.94014      0.000115135  4.66068e-07  0.000122466  
0.94252      0.000116865  4.7183e-07   0.000123992  
0.9449       0.000118615  4.77649e-07  0.000125532  
0.94728      0.000120387  4.83523e-07  0.000127087  
0.94966      0.000122181  4.89454e-07  0.000128658  
0.95204      0.000123997  4.95441e-07  0.000130243  
0.95442      0.000125835  5.01486e-07  0.000131844  
0.9568       0.000127695  5.07588e-07  0.000133461  
0.95918      0.000129578  5.13748e-07  0.000135093  
0.96156      0.000131484  5.19966e-07  0.00013674   
0.96394      0.000133413  5.26242e-07  0.000138404  
0.96632      0.000135365  5.32578e-07  0.000140083  
0.9687       0.000137341  5.38974e-07  0.000141778  
0.97108      0.00013934   5.45429e-07  0.00014349   
0.97346      0.000141363  5.51944e-07  0.000145217  
0.97584      0.000143411  5.5852e-07   0.000146961  
0.97822      0.000145482  5.65157e-07  0.000148721  
0.9806       0.000147579  5.71856e-07  0.000150498  
0.98298      0.0001497    5.78616e-07  0.000152292  
