# Mass = 0.0480256 Mev*(hbarc)^2/2 
# R = 7.46549 fm 
# a = 0.662 fm 
# V0 = 45.1811 MeV 
# RSO = 6.86114 fm 
# aSO = 0.662 fm 
# VSO = 27.8547 MeV fm^2
# n = 0 
# l = 2 
# two_j = 5 
# two_t = -1 
# Energy = -32.6989 MeV
# r          u            Phi          u/r          
0.1          1.59947e-05  1.80931e-07  0.000159947  
0.10238      1.7164e-05   1.89636e-07  0.00016765   
0.10476      1.8389e-05   1.98547e-07  0.000175535  
0.10714      1.96709e-05  2.07661e-07  0.0001836    
0.10952      2.10109e-05  2.1698e-07   0.000191846  
0.1119       2.24104e-05  2.26502e-07  0.000200272  
0.11428      2.38707e-05  2.36229e-07  0.000208879  
0.11666      2.5393e-05   2.4616e-07   0.000217667  
0.11904      2.69786e-05  2.56295e-07  0.000226635  
0.12142      2.86288e-05  2.66633e-07  0.000235783  
0.1238       3.0345e-05   2.77176e-07  0.000245113  
0.12618      3.21283e-05  2.87922e-07  0.000254623  
0.12856      3.39801e-05  2.98872e-07  0.000264313  
0.13094      3.59016e-05  3.10026e-07  0.000274184  
0.13332      3.78942e-05  3.21384e-07  0.000284235  
0.1357       3.99591e-05  3.32944e-07  0.000294467  
0.13808      4.20977e-05  3.44709e-07  0.000304879  
0.14046      4.43111e-05  3.56677e-07  0.000315471  
0.14284      4.66007e-05  3.68848e-07  0.000326244  
0.14522      4.89678e-05  3.81223e-07  0.000337197  
0.1476       5.14136e-05  3.93801e-07  0.000348331  
0.14998      5.39395e-05  4.06582e-07  0.000359645  
0.15236      5.65467e-05  4.19566e-07  0.000371139  
0.15474      5.92365e-05  4.32753e-07  0.000382813  
0.15712      6.20101e-05  4.46144e-07  0.000394667  
0.1595       6.48689e-05  4.59737e-07  0.000406702  
0.16188      6.78142e-05  4.73533e-07  0.000418916  
0.16426      7.08472e-05  4.87532e-07  0.000431311  
0.16664      7.39691e-05  5.01734e-07  0.000443886  
0.16902      7.71814e-05  5.16138e-07  0.000456641  
0.1714       8.04852e-05  5.30745e-07  0.000469575  
0.17378      8.38818e-05  5.45555e-07  0.00048269   
0.17616      8.73726e-05  5.60567e-07  0.000495984  
0.17854      9.09588e-05  5.75781e-07  0.000509459  
0.18092      9.46416e-05  5.91198e-07  0.000523113  
0.1833       9.84224e-05  6.06817e-07  0.000536947  
0.18568      0.000102302  6.22638e-07  0.000550961  
0.18806      0.000106283  6.38661e-07  0.000565154  
0.19044      0.000110365  6.54886e-07  0.000579527  
0.19282      0.00011455   6.71313e-07  0.00059408   
0.1952       0.00011884   6.87942e-07  0.000608812  
0.19758      0.000123235  7.04772e-07  0.000623724  
0.19996      0.000127737  7.21805e-07  0.000638815  
0.20234      0.000132348  7.39039e-07  0.000654086  
0.20472      0.000137067  7.56474e-07  0.000669536  
0.2071       0.000141898  7.74111e-07  0.000685165  
0.20948      0.00014684   7.91949e-07  0.000700974  
0.21186      0.000151896  8.09988e-07  0.000716962  
0.21424      0.000157066  8.28229e-07  0.000733129  
0.21662      0.000162351  8.46671e-07  0.000749476  
0.219        0.000167754  8.65313e-07  0.000766001  
0.22138      0.000173275  8.84157e-07  0.000782706  
0.22376      0.000178916  9.03201e-07  0.000799589  
0.22614      0.000184678  9.22446e-07  0.000816652  
0.22852      0.000190561  9.41892e-07  0.000833893  
0.2309       0.000196568  9.61538e-07  0.000851314  
0.23328      0.0002027    9.81385e-07  0.000868913  
0.23566      0.000208958  1.00143e-06  0.000886691  
0.23804      0.000215342  1.02168e-06  0.000904648  
0.24042      0.000221856  1.04213e-06  0.000922783  
0.2428       0.000228498  1.06277e-06  0.000941097  
0.24518      0.000235272  1.08362e-06  0.00095959   
0.24756      0.000242178  1.10467e-06  0.000978261  
0.24994      0.000249218  1.12592e-06  0.00099711   
0.25232      0.000256392  1.14736e-06  0.00101614   
0.2547       0.000263702  1.16901e-06  0.00103534   
0.25708      0.00027115   1.19085e-06  0.00105473   
0.25946      0.000278736  1.2129e-06   0.00107429   
0.26184      0.000286462  1.23514e-06  0.00109403   
0.26422      0.000294328  1.25759e-06  0.00111395   
0.2666       0.000302338  1.28023e-06  0.00113405   
0.26898      0.00031049   1.30307e-06  0.00115432   
0.27136      0.000318788  1.32611e-06  0.00117478   
0.27374      0.000327231  1.34935e-06  0.00119541   
0.27612      0.000335822  1.37278e-06  0.00121622   
0.2785       0.000344561  1.39642e-06  0.0012372    
0.28088      0.000353451  1.42025e-06  0.00125837   
0.28326      0.000362491  1.44428e-06  0.00127971   
0.28564      0.000371683  1.46851e-06  0.00130123   
0.28802      0.00038103   1.49294e-06  0.00132293   
0.2904       0.00039053   1.51757e-06  0.0013448    
0.29278      0.000400187  1.54239e-06  0.00136685   
0.29516      0.000410002  1.56741e-06  0.00138908   
0.29754      0.000419975  1.59263e-06  0.00141149   
0.29992      0.000430107  1.61805e-06  0.00143407   
0.3023       0.000440401  1.64366e-06  0.00145683   
0.30468      0.000450857  1.66947e-06  0.00147977   
0.30706      0.000461476  1.69548e-06  0.00150289   
0.30944      0.000472261  1.72168e-06  0.00152618   
0.31182      0.000483211  1.74808e-06  0.00154965   
0.3142       0.000494329  1.77468e-06  0.00157329   
0.31658      0.000505615  1.80147e-06  0.00159712   
0.31896      0.000517071  1.82846e-06  0.00162111   
0.32134      0.000528697  1.85565e-06  0.00164529   
0.32372      0.000540496  1.88303e-06  0.00166964   
0.3261       0.000552469  1.91061e-06  0.00169417   
0.32848      0.000564616  1.93838e-06  0.00171887   
0.33086      0.000576939  1.96635e-06  0.00174376   
0.33324      0.000589439  1.99452e-06  0.00176881   
0.33562      0.000602118  2.02288e-06  0.00179405   
0.338        0.000614976  2.05144e-06  0.00181946   
0.34038      0.000628015  2.08019e-06  0.00184504   
0.34276      0.000641237  2.10913e-06  0.0018708    
0.34514      0.000654641  2.13828e-06  0.00189674   
0.34752      0.00066823   2.16761e-06  0.00192285   
0.3499       0.000682005  2.19714e-06  0.00194914   
0.35228      0.000695967  2.22687e-06  0.00197561   
0.35466      0.000710117  2.25679e-06  0.00200225   
0.35704      0.000724457  2.2869e-06   0.00202906   
0.35942      0.000738987  2.31721e-06  0.00205605   
0.3618       0.000753709  2.34771e-06  0.00208322   
0.36418      0.000768624  2.3784e-06   0.00211056   
0.36656      0.000783734  2.40929e-06  0.00213808   
0.36894      0.000799039  2.44037e-06  0.00216577   
0.37132      0.000814541  2.47165e-06  0.00219364   
0.3737       0.000830241  2.50311e-06  0.00222168   
0.37608      0.00084614   2.53478e-06  0.00224989   
0.37846      0.00086224   2.56663e-06  0.00227829   
0.38084      0.000878542  2.59868e-06  0.00230685   
0.38322      0.000895046  2.63091e-06  0.00233559   
0.3856       0.000911754  2.66334e-06  0.00236451   
0.38798      0.000928668  2.69597e-06  0.0023936    
0.39036      0.000945788  2.72878e-06  0.00242286   
0.39274      0.000963116  2.76179e-06  0.0024523    
0.39512      0.000980653  2.79499e-06  0.00248191   
0.3975       0.0009984    2.82838e-06  0.0025117    
0.39988      0.00101636   2.86196e-06  0.00254166   
0.40226      0.00103453   2.89573e-06  0.00257179   
0.40464      0.00105291   2.9297e-06   0.0026021    
0.40702      0.00107151   2.96385e-06  0.00263258   
0.4094       0.00109033   2.9982e-06   0.00266324   
0.41178      0.00110936   3.03273e-06  0.00269407   
0.41416      0.00112861   3.06746e-06  0.00272507   
0.41654      0.00114809   3.10237e-06  0.00275624   
0.41892      0.00116778   3.13748e-06  0.00278759   
0.4213       0.00118769   3.17278e-06  0.00281912   
0.42368      0.00120783   3.20826e-06  0.00285081   
0.42606      0.00122819   3.24394e-06  0.00288268   
0.42844      0.00124878   3.2798e-06   0.00291472   
0.43082      0.0012696    3.31586e-06  0.00294693   
0.4332       0.00129064   3.3521e-06   0.00297932   
0.43558      0.00131191   3.38853e-06  0.00301188   
0.43796      0.00133342   3.42515e-06  0.00304461   
0.44034      0.00135515   3.46196e-06  0.00307752   
0.44272      0.00137712   3.49895e-06  0.00311059   
0.4451       0.00139932   3.53614e-06  0.00314384   
0.44748      0.00142176   3.57351e-06  0.00317726   
0.44986      0.00144444   3.61107e-06  0.00321086   
0.45224      0.00146735   3.64882e-06  0.00324462   
0.45462      0.0014905    3.68676e-06  0.00327856   
0.457        0.00151389   3.72488e-06  0.00331267   
0.45938      0.00153752   3.76319e-06  0.00334695   
0.46176      0.0015614    3.80168e-06  0.0033814    
0.46414      0.00158551   3.84037e-06  0.00341602   
0.46652      0.00160988   3.87924e-06  0.00345082   
0.4689       0.00163448   3.91829e-06  0.00348579   
0.47128      0.00165934   3.95753e-06  0.00352092   
0.47366      0.00168444   3.99696e-06  0.00355623   
0.47604      0.0017098    4.03657e-06  0.00359171   
0.47842      0.0017354    4.07637e-06  0.00362736   
0.4808       0.00176126   4.11635e-06  0.00366318   
0.48318      0.00178737   4.15652e-06  0.00369917   
0.48556      0.00181373   4.19688e-06  0.00373533   
0.48794      0.00184035   4.23742e-06  0.00377167   
0.49032      0.00186722   4.27814e-06  0.00380817   
0.4927       0.00189435   4.31904e-06  0.00384484   
0.49508      0.00192175   4.36014e-06  0.00388169   
0.49746      0.0019494    4.40141e-06  0.0039187    
0.49984      0.00197731   4.44287e-06  0.00395588   
0.50222      0.00200548   4.48451e-06  0.00399323   
0.5046       0.00203392   4.52634e-06  0.00403076   
0.50698      0.00206262   4.56834e-06  0.00406845   
0.50936      0.00209159   4.61054e-06  0.00410631   
0.51174      0.00212083   4.65291e-06  0.00414434   
0.51412      0.00215033   4.69547e-06  0.00418254   
0.5165       0.0021801    4.7382e-06   0.00422091   
0.51888      0.00221014   4.78112e-06  0.00425945   
0.52126      0.00224046   4.82423e-06  0.00429816   
0.52364      0.00227104   4.86751e-06  0.00433703   
0.52602      0.0023019    4.91098e-06  0.00437608   
0.5284       0.00233304   4.95462e-06  0.00441529   
0.53078      0.00236445   4.99845e-06  0.00445467   
0.53316      0.00239614   5.04246e-06  0.00449422   
0.53554      0.00242811   5.08665e-06  0.00453394   
0.53792      0.00246035   5.13102e-06  0.00457383   
0.5403       0.00249288   5.17557e-06  0.00461388   
0.54268      0.00252569   5.22029e-06  0.0046541    
0.54506      0.00255878   5.2652e-06   0.00469449   
0.54744      0.00259216   5.31029e-06  0.00473505   
0.54982      0.00262582   5.35556e-06  0.00477578   
0.5522       0.00265976   5.40101e-06  0.00481667   
0.55458      0.002694     5.44663e-06  0.00485773   
0.55696      0.00272852   5.49243e-06  0.00489895   
0.55934      0.00276333   5.53842e-06  0.00494035   
0.56172      0.00279844   5.58458e-06  0.00498191   
0.5641       0.00283383   5.63091e-06  0.00502364   
0.56648      0.00286952   5.67743e-06  0.00506553   
0.56886      0.0029055    5.72412e-06  0.00510759   
0.57124      0.00294178   5.77099e-06  0.00514982   
0.57362      0.00297836   5.81804e-06  0.00519221   
0.576        0.00301523   5.86527e-06  0.00523477   
0.57838      0.0030524    5.91267e-06  0.0052775    
0.58076      0.00308987   5.96024e-06  0.00532039   
0.58314      0.00312764   6.008e-06    0.00536345   
0.58552      0.00316571   6.05592e-06  0.00540667   
0.5879       0.00320409   6.10403e-06  0.00545006   
0.59028      0.00324277   6.15231e-06  0.00549361   
0.59266      0.00328176   6.20076e-06  0.00553733   
0.59504      0.00332105   6.24939e-06  0.00558122   
0.59742      0.00336065   6.2982e-06   0.00562527   
0.5998       0.00340056   6.34718e-06  0.00566948   
0.60218      0.00344077   6.39633e-06  0.00571386   
0.60456      0.0034813    6.44565e-06  0.00575841   
0.60694      0.00352214   6.49515e-06  0.00580312   
0.60932      0.0035633    6.54483e-06  0.00584799   
0.6117       0.00360476   6.59468e-06  0.00589303   
0.61408      0.00364655   6.6447e-06   0.00593823   
0.61646      0.00368865   6.69489e-06  0.00598359   
0.61884      0.00373106   6.74525e-06  0.00602912   
0.62122      0.0037738    6.79579e-06  0.00607482   
0.6236       0.00381685   6.8465e-06   0.00612067   
0.62598      0.00386023   6.89738e-06  0.00616669   
0.62836      0.00390392   6.94843e-06  0.00621288   
0.63074      0.00394794   6.99966e-06  0.00625922   
0.63312      0.00399229   7.05105e-06  0.00630573   
0.6355       0.00403695   7.10262e-06  0.00635241   
0.63788      0.00408195   7.15435e-06  0.00639924   
0.64026      0.00412727   7.20626e-06  0.00644624   
0.64264      0.00417292   7.25833e-06  0.0064934    
0.64502      0.0042189    7.31058e-06  0.00654072   
0.6474       0.00426521   7.36299e-06  0.00658821   
0.64978      0.00431185   7.41558e-06  0.00663586   
0.65216      0.00435882   7.46833e-06  0.00668367   
0.65454      0.00440613   7.52125e-06  0.00673164   
0.65692      0.00445377   7.57434e-06  0.00677977   
0.6593       0.00450174   7.6276e-06   0.00682807   
0.66168      0.00455006   7.68103e-06  0.00687652   
0.66406      0.00459871   7.73462e-06  0.00692514   
0.66644      0.0046477    7.78838e-06  0.00697392   
0.66882      0.00469703   7.84231e-06  0.00702286   
0.6712       0.0047467    7.8964e-06   0.00707196   
0.67358      0.00479671   7.95066e-06  0.00712122   
0.67596      0.00484707   8.00509e-06  0.00717064   
0.67834      0.00489777   8.05969e-06  0.00722022   
0.68072      0.00494881   8.11445e-06  0.00726997   
0.6831       0.0050002    8.16937e-06  0.00731987   
0.68548      0.00505194   8.22446e-06  0.00736993   
0.68786      0.00510403   8.27972e-06  0.00742015   
0.69024      0.00515646   8.33513e-06  0.00747054   
0.69262      0.00520925   8.39072e-06  0.00752108   
0.695        0.00526239   8.44647e-06  0.00757178   
0.69738      0.00531588   8.50238e-06  0.00762264   
0.69976      0.00536972   8.55845e-06  0.00767366   
0.70214      0.00542392   8.61469e-06  0.00772484   
0.70452      0.00547847   8.6711e-06   0.00777617   
0.7069       0.00553338   8.72766e-06  0.00782767   
0.70928      0.00558865   8.78439e-06  0.00787932   
0.71166      0.00564427   8.84128e-06  0.00793114   
0.71404      0.00570026   8.89833e-06  0.00798311   
0.71642      0.0057566    8.95554e-06  0.00803524   
0.7188       0.00581331   9.01292e-06  0.00808752   
0.72118      0.00587038   9.07045e-06  0.00813997   
0.72356      0.00592781   9.12815e-06  0.00819257   
0.72594      0.00598561   9.186e-06    0.00824533   
0.72832      0.00604378   9.24402e-06  0.00829824   
0.7307       0.00610231   9.3022e-06   0.00835132   
0.73308      0.00616121   9.36053e-06  0.00840455   
0.73546      0.00622047   9.41903e-06  0.00845794   
0.73784      0.00628011   9.47768e-06  0.00851148   
0.74022      0.00634012   9.5365e-06   0.00856518   
0.7426       0.0064005    9.59547e-06  0.00861904   
0.74498      0.00646125   9.6546e-06   0.00867305   
0.74736      0.00652238   9.71389e-06  0.00872722   
0.74974      0.00658388   9.77333e-06  0.00878155   
0.75212      0.00664575   9.83294e-06  0.00883603   
0.7545       0.00670801   9.8927e-06   0.00889067   
0.75688      0.00677064   9.95261e-06  0.00894546   
0.75926      0.00683365   1.00127e-05  0.00900041   
0.76164      0.00689704   1.00729e-05  0.00905551   
0.76402      0.00696081   1.01333e-05  0.00911077   
0.7664       0.00702496   1.01938e-05  0.00916618   
0.76878      0.00708949   1.02545e-05  0.00922174   
0.77116      0.00715441   1.03154e-05  0.00927747   
0.77354      0.00721971   1.03764e-05  0.00933334   
0.77592      0.0072854    1.04376e-05  0.00938937   
0.7783       0.00735147   1.04989e-05  0.00944555   
0.78068      0.00741794   1.05603e-05  0.00950189   
0.78306      0.00748479   1.0622e-05   0.00955838   
0.78544      0.00755203   1.06837e-05  0.00961503   
0.78782      0.00761966   1.07457e-05  0.00967182   
0.7902       0.00768768   1.08077e-05  0.00972878   
0.79258      0.00775609   1.087e-05    0.00978588   
0.79496      0.0078249    1.09324e-05  0.00984314   
0.79734      0.0078941    1.09949e-05  0.00990055   
0.79972      0.0079637    1.10576e-05  0.00995811   
0.8021       0.00803369   1.11204e-05  0.0100158    
0.80448      0.00810408   1.11834e-05  0.0100737    
0.80686      0.00817487   1.12465e-05  0.0101317    
0.80924      0.00824605   1.13098e-05  0.0101899    
0.81162      0.00831764   1.13733e-05  0.0102482    
0.814        0.00838963   1.14369e-05  0.0103067    
0.81638      0.00846202   1.15006e-05  0.0103653    
0.81876      0.00853481   1.15645e-05  0.0104241    
0.82114      0.00860801   1.16285e-05  0.010483     
0.82352      0.00868161   1.16927e-05  0.0105421    
0.8259       0.00875561   1.1757e-05   0.0106013    
0.82828      0.00883003   1.18215e-05  0.0106607    
0.83066      0.00890485   1.18861e-05  0.0107202    
0.83304      0.00898007   1.19509e-05  0.0107799    
0.83542      0.00905571   1.20158e-05  0.0108397    
0.8378       0.00913176   1.20809e-05  0.0108997    
0.84018      0.00920822   1.21461e-05  0.0109598    
0.84256      0.00928509   1.22114e-05  0.0110201    
0.84494      0.00936237   1.22769e-05  0.0110805    
0.84732      0.00944007   1.23426e-05  0.0111411    
0.8497       0.00951819   1.24084e-05  0.0112018    
0.85208      0.00959671   1.24743e-05  0.0112627    
0.85446      0.00967566   1.25404e-05  0.0113237    
0.85684      0.00975502   1.26066e-05  0.0113849    
0.85922      0.0098348    1.2673e-05   0.0114462    
0.8616       0.009915     1.27395e-05  0.0115077    
0.86398      0.00999563   1.28061e-05  0.0115693    
0.86636      0.0100767    1.28729e-05  0.011631     
0.86874      0.0101581    1.29399e-05  0.0116929    
0.87112      0.01024      1.3007e-05   0.011755     
0.8735       0.0103223    1.30742e-05  0.0118172    
0.87588      0.0104051    1.31415e-05  0.0118796    
0.87826      0.0104882    1.3209e-05   0.0119421    
0.88064      0.0105718    1.32767e-05  0.0120047    
0.88302      0.0106558    1.33445e-05  0.0120675    
0.8854       0.0107403    1.34124e-05  0.0121304    
0.88778      0.0108251    1.34804e-05  0.0121935    
0.89016      0.0109104    1.35486e-05  0.0122567    
0.89254      0.0109962    1.3617e-05   0.0123201    
0.89492      0.0110823    1.36855e-05  0.0123836    
0.8973       0.0111689    1.37541e-05  0.0124473    
0.89968      0.011256     1.38228e-05  0.0125111    
0.90206      0.0113434    1.38917e-05  0.012575     
0.90444      0.0114313    1.39607e-05  0.0126391    
0.90682      0.0115197    1.40299e-05  0.0127034    
0.9092       0.0116085    1.40992e-05  0.0127678    
0.91158      0.0116977    1.41686e-05  0.0128323    
0.91396      0.0117873    1.42382e-05  0.012897     
0.91634      0.0118774    1.43079e-05  0.0129618    
0.91872      0.0119679    1.43777e-05  0.0130268    
0.9211       0.0120589    1.44477e-05  0.0130919    
0.92348      0.0121503    1.45178e-05  0.0131571    
0.92586      0.0122422    1.45881e-05  0.0132225    
0.92824      0.0123345    1.46584e-05  0.013288     
0.93062      0.0124272    1.4729e-05   0.0133537    
0.933        0.0125204    1.47996e-05  0.0134195    
0.93538      0.0126141    1.48704e-05  0.0134855    
0.93776      0.0127081    1.49413e-05  0.0135516    
0.94014      0.0128027    1.50123e-05  0.0136178    
0.94252      0.0128976    1.50835e-05  0.0136842    
0.9449       0.0129931    1.51548e-05  0.0137507    
0.94728      0.013089     1.52262e-05  0.0138174    
0.94966      0.0131853    1.52978e-05  0.0138842    
0.95204      0.0132821    1.53695e-05  0.0139512    
0.95442      0.0133793    1.54413e-05  0.0140183    
0.9568       0.013477     1.55132e-05  0.0140855    
0.95918      0.0135752    1.55853e-05  0.0141529    
0.96156      0.0136738    1.56575e-05  0.0142204    
0.96394      0.0137728    1.57299e-05  0.014288     
0.96632      0.0138723    1.58023e-05  0.0143558    
0.9687       0.0139723    1.58749e-05  0.0144238    
0.97108      0.0140727    1.59476e-05  0.0144918    
0.97346      0.0141736    1.60205e-05  0.01456      
0.97584      0.014275     1.60935e-05  0.0146284    
0.97822      0.0143768    1.61666e-05  0.0146969    
0.9806       0.0144791    1.62398e-05  0.0147655    
0.98298      0.0145818    1.63131e-05  0.0148343    
