# Mass = 0.0480256 Mev*(hbarc)^2/2 
# R = 7.46549 fm 
# a = 0.662 fm 
# V0 = 45.1811 MeV 
# RSO = 6.86114 fm 
# aSO = 0.662 fm 
# VSO = 27.8547 MeV fm^2
# n = 1 
# l = 2 
# two_j = 5 
# two_t = -1 
# Energy = -17.5451 MeV
# r          u            Phi          u/r          
0.1          4.73694e-05  3.03962e-06  0.000473694  
0.10238      5.08326e-05  3.1857e-06   0.000496509  
0.10476      5.44602e-05  3.33519e-06  0.000519856  
0.10714      5.8256e-05   3.4881e-06   0.000543737  
0.10952      6.22238e-05  3.64442e-06  0.00056815   
0.1119       6.63675e-05  3.80416e-06  0.000593097  
0.11428      7.06909e-05  3.96731e-06  0.000618576  
0.11666      7.51976e-05  4.13386e-06  0.000644588  
0.11904      7.98916e-05  4.30383e-06  0.000671132  
0.12142      8.47766e-05  4.47719e-06  0.000698209  
0.1238       8.98564e-05  4.65396e-06  0.000725819  
0.12618      9.51348e-05  4.83413e-06  0.000753961  
0.12856      0.000100615  5.01769e-06  0.000782635  
0.13094      0.000106302  5.20465e-06  0.00081184   
0.13332      0.000112199  5.39501e-06  0.000841578  
0.1357       0.00011831   5.58875e-06  0.000871847  
0.13808      0.000124638  5.78589e-06  0.000902648  
0.14046      0.000131187  5.98641e-06  0.00093398   
0.14284      0.000137961  6.19032e-06  0.000965843  
0.14522      0.000144964  6.39761e-06  0.000998237  
0.1476       0.000152199  6.60827e-06  0.00103116   
0.14998      0.000159671  6.82232e-06  0.00106462   
0.15236      0.000167383  7.03974e-06  0.0010986    
0.15474      0.000175339  7.26054e-06  0.00113312   
0.15712      0.000183542  7.48471e-06  0.00116816   
0.1595       0.000191996  7.71224e-06  0.00120374   
0.16188      0.000200706  7.94314e-06  0.00123984   
0.16426      0.000209674  8.1774e-06   0.00127648   
0.16664      0.000218905  8.41503e-06  0.00131364   
0.16902      0.000228402  8.65601e-06  0.00135133   
0.1714       0.000238169  8.90035e-06  0.00138955   
0.17378      0.00024821   9.14804e-06  0.0014283    
0.17616      0.000258529  9.39908e-06  0.00146758   
0.17854      0.000269128  9.65346e-06  0.00150738   
0.18092      0.000280013  9.91119e-06  0.00154772   
0.1833       0.000291186  1.01723e-05  0.00158858   
0.18568      0.000302651  1.04367e-05  0.00162996   
0.18806      0.000314413  1.07044e-05  0.00167187   
0.19044      0.000326474  1.09755e-05  0.00171431   
0.19282      0.000338839  1.12499e-05  0.00175728   
0.1952       0.000351511  1.15277e-05  0.00180077   
0.19758      0.000364494  1.18087e-05  0.00184479   
0.19996      0.000377791  1.20931e-05  0.00188933   
0.20234      0.000391407  1.23808e-05  0.0019344    
0.20472      0.000405345  1.26718e-05  0.00198      
0.2071       0.000419608  1.29662e-05  0.00202611   
0.20948      0.000434201  1.32638e-05  0.00207275   
0.21186      0.000449126  1.35647e-05  0.00211992   
0.21424      0.000464389  1.3869e-05   0.00216761   
0.21662      0.000479992  1.41765e-05  0.00221582   
0.219        0.000495939  1.44874e-05  0.00226456   
0.22138      0.000512233  1.48015e-05  0.00231382   
0.22376      0.000528879  1.51189e-05  0.0023636    
0.22614      0.00054588   1.54396e-05  0.0024139    
0.22852      0.00056324   1.57636e-05  0.00246473   
0.2309       0.000580961  1.60909e-05  0.00251607   
0.23328      0.000599049  1.64215e-05  0.00256794   
0.23566      0.000617507  1.67553e-05  0.00262033   
0.23804      0.000636338  1.70924e-05  0.00267324   
0.24042      0.000655545  1.74327e-05  0.00272667   
0.2428       0.000675134  1.77763e-05  0.00278062   
0.24518      0.000695106  1.81232e-05  0.00283508   
0.24756      0.000715466  1.84733e-05  0.00289007   
0.24994      0.000736218  1.88267e-05  0.00294558   
0.25232      0.000757364  1.91833e-05  0.0030016    
0.2547       0.000778909  1.95431e-05  0.00305814   
0.25708      0.000800856  1.99062e-05  0.0031152    
0.25946      0.00082321   2.02725e-05  0.00317278   
0.26184      0.000845972  2.06421e-05  0.00323087   
0.26422      0.000869148  2.10149e-05  0.00328948   
0.2666       0.00089274   2.13909e-05  0.00334861   
0.26898      0.000916752  2.17701e-05  0.00340825   
0.27136      0.000941188  2.21526e-05  0.00346841   
0.27374      0.000966051  2.25382e-05  0.00352908   
0.27612      0.000991346  2.2927e-05   0.00359027   
0.2785       0.00101707   2.33191e-05  0.00365197   
0.28088      0.00104324   2.37144e-05  0.00371419   
0.28326      0.00106985   2.41128e-05  0.00377692   
0.28564      0.0010969    2.45144e-05  0.00384016   
0.28802      0.0011244    2.49192e-05  0.00390391   
0.2904       0.00115236   2.53272e-05  0.00396818   
0.29278      0.00118077   2.57384e-05  0.00403296   
0.29516      0.00120964   2.61527e-05  0.00409825   
0.29754      0.00123897   2.65703e-05  0.00416405   
0.29992      0.00126877   2.69909e-05  0.00423036   
0.3023       0.00129904   2.74148e-05  0.00429718   
0.30468      0.00132978   2.78417e-05  0.00436451   
0.30706      0.001361     2.82719e-05  0.00443235   
0.30944      0.0013927    2.87051e-05  0.0045007    
0.31182      0.00142488   2.91415e-05  0.00456956   
0.3142       0.00145755   2.95811e-05  0.00463892   
0.31658      0.00149071   3.00238e-05  0.00470879   
0.31896      0.00152436   3.04696e-05  0.00477917   
0.32134      0.00155852   3.09185e-05  0.00485006   
0.32372      0.00159317   3.13705e-05  0.00492145   
0.3261       0.00162833   3.18257e-05  0.00499335   
0.32848      0.001664     3.22839e-05  0.00506575   
0.33086      0.00170018   3.27453e-05  0.00513866   
0.33324      0.00173687   3.32097e-05  0.00521207   
0.33562      0.00177408   3.36772e-05  0.00528598   
0.338        0.00181182   3.41479e-05  0.0053604    
0.34038      0.00185008   3.46216e-05  0.00543532   
0.34276      0.00188886   3.50983e-05  0.00551075   
0.34514      0.00192818   3.55782e-05  0.00558667   
0.34752      0.00196804   3.60611e-05  0.0056631    
0.3499       0.00200844   3.65471e-05  0.00574003   
0.35228      0.00204937   3.70361e-05  0.00581746   
0.35466      0.00209086   3.75281e-05  0.00589538   
0.35704      0.00213289   3.80233e-05  0.00597381   
0.35942      0.00217547   3.85214e-05  0.00605274   
0.3618       0.00221862   3.90226e-05  0.00613216   
0.36418      0.00226232   3.95268e-05  0.00621208   
0.36656      0.00230658   4.00341e-05  0.0062925    
0.36894      0.00235141   4.05443e-05  0.00637342   
0.37132      0.00239681   4.10576e-05  0.00645483   
0.3737       0.00244278   4.15738e-05  0.00653674   
0.37608      0.00248933   4.20931e-05  0.00661914   
0.37846      0.00253645   4.26154e-05  0.00670204   
0.38084      0.00258416   4.31406e-05  0.00678543   
0.38322      0.00263246   4.36688e-05  0.00686932   
0.3856       0.00268135   4.42001e-05  0.0069537    
0.38798      0.00273082   4.47342e-05  0.00703857   
0.39036      0.0027809    4.52714e-05  0.00712393   
0.39274      0.00283157   4.58115e-05  0.00720979   
0.39512      0.00288285   4.63545e-05  0.00729613   
0.3975       0.00293473   4.69006e-05  0.00738297   
0.39988      0.00298722   4.74495e-05  0.0074703    
0.40226      0.00304033   4.80014e-05  0.00755811   
0.40464      0.00309405   4.85562e-05  0.00764641   
0.40702      0.00314838   4.91139e-05  0.00773521   
0.4094       0.00320334   4.96746e-05  0.00782449   
0.41178      0.00325893   5.02382e-05  0.00791425   
0.41416      0.00331515   5.08046e-05  0.0080045    
0.41654      0.00337199   5.1374e-05   0.00809524   
0.41892      0.00342947   5.19463e-05  0.00818646   
0.4213       0.00348759   5.25214e-05  0.00827817   
0.42368      0.00354636   5.30995e-05  0.00837036   
0.42606      0.00360576   5.36804e-05  0.00846304   
0.42844      0.00366582   5.42642e-05  0.0085562    
0.43082      0.00372652   5.48508e-05  0.00864984   
0.4332       0.00378788   5.54403e-05  0.00874396   
0.43558      0.0038499    5.60327e-05  0.00883856   
0.43796      0.00391258   5.66279e-05  0.00893364   
0.44034      0.00397592   5.72259e-05  0.00902921   
0.44272      0.00403993   5.78267e-05  0.00912525   
0.4451       0.00410461   5.84304e-05  0.00922177   
0.44748      0.00416996   5.90369e-05  0.00931877   
0.44986      0.00423599   5.96462e-05  0.00941624   
0.45224      0.0043027    6.02583e-05  0.00951419   
0.45462      0.00437009   6.08732e-05  0.00961262   
0.457        0.00443817   6.14909e-05  0.00971153   
0.45938      0.00450693   6.21114e-05  0.0098109    
0.46176      0.00457639   6.27347e-05  0.00991076   
0.46414      0.00464654   6.33607e-05  0.0100111    
0.46652      0.00471739   6.39895e-05  0.0101119    
0.4689       0.00478895   6.4621e-05   0.0102132    
0.47128      0.0048612    6.52553e-05  0.0103149    
0.47366      0.00493417   6.58924e-05  0.0104171    
0.47604      0.00500784   6.65321e-05  0.0105198    
0.47842      0.00508223   6.71746e-05  0.0106229    
0.4808       0.00515733   6.78199e-05  0.0107266    
0.48318      0.00523316   6.84678e-05  0.0108307    
0.48556      0.0053097    6.91184e-05  0.0109352    
0.48794      0.00538697   6.97718e-05  0.0110402    
0.49032      0.00546497   7.04278e-05  0.0111457    
0.4927       0.0055437    7.10866e-05  0.0112517    
0.49508      0.00562317   7.1748e-05   0.0113581    
0.49746      0.00570337   7.2412e-05   0.011465     
0.49984      0.00578432   7.30788e-05  0.0115723    
0.50222      0.005866     7.37482e-05  0.0116801    
0.5046       0.00594843   7.44202e-05  0.0117884    
0.50698      0.00603162   7.50949e-05  0.0118972    
0.50936      0.00611555   7.57723e-05  0.0120063    
0.51174      0.00620024   7.64522e-05  0.012116     
0.51412      0.00628569   7.71348e-05  0.0122261    
0.5165       0.0063719    7.782e-05    0.0123367    
0.51888      0.00645887   7.85078e-05  0.0124477    
0.52126      0.00654661   7.91982e-05  0.0125592    
0.52364      0.00663512   7.98911e-05  0.0126711    
0.52602      0.0067244    8.05867e-05  0.0127835    
0.5284       0.00681446   8.12849e-05  0.0128964    
0.53078      0.00690529   8.19856e-05  0.0130097    
0.53316      0.00699691   8.26888e-05  0.0131235    
0.53554      0.00708931   8.33947e-05  0.0132377    
0.53792      0.0071825    8.4103e-05   0.0133523    
0.5403       0.00727647   8.48139e-05  0.0134675    
0.54268      0.00737124   8.55274e-05  0.013583     
0.54506      0.00746681   8.62433e-05  0.0136991    
0.54744      0.00756317   8.69618e-05  0.0138155    
0.54982      0.00766033   8.76827e-05  0.0139324    
0.5522       0.0077583    8.84062e-05  0.0140498    
0.55458      0.00785707   8.91322e-05  0.0141676    
0.55696      0.00795665   8.98606e-05  0.0142859    
0.55934      0.00805705   9.05915e-05  0.0144046    
0.56172      0.00815826   9.13249e-05  0.0145237    
0.5641       0.00826028   9.20608e-05  0.0146433    
0.56648      0.00836313   9.2799e-05   0.0147633    
0.56886      0.0084668    9.35398e-05  0.0148838    
0.57124      0.00857129   9.42829e-05  0.0150047    
0.57362      0.00867661   9.50285e-05  0.0151261    
0.576        0.00878277   9.57765e-05  0.0152479    
0.57838      0.00888976   9.6527e-05   0.0153701    
0.58076      0.00899758   9.72798e-05  0.0154928    
0.58314      0.00910624   9.8035e-05   0.0156159    
0.58552      0.00921575   9.87926e-05  0.0157394    
0.5879       0.0093261    9.95526e-05  0.0158634    
0.59028      0.00943729   0.000100315  0.0159878    
0.59266      0.00954934   0.00010108   0.0161127    
0.59504      0.00966224   0.000101847  0.016238     
0.59742      0.00977599   0.000102616  0.0163637    
0.5998       0.0098906    0.000103388  0.0164898    
0.60218      0.0100061    0.000104162  0.0166164    
0.60456      0.0101224    0.000104938  0.0167434    
0.60694      0.0102396    0.000105717  0.0168709    
0.60932      0.0103577    0.000106498  0.0169987    
0.6117       0.0104766    0.000107281  0.017127     
0.61408      0.0105964    0.000108067  0.0172557    
0.61646      0.0107171    0.000108854  0.0173849    
0.61884      0.0108387    0.000109645  0.0175145    
0.62122      0.0109611    0.000110437  0.0176445    
0.6236       0.0110844    0.000111232  0.0177749    
0.62598      0.0112086    0.000112028  0.0179057    
0.62836      0.0113337    0.000112827  0.018037     
0.63074      0.0114597    0.000113629  0.0181687    
0.63312      0.0115866    0.000114432  0.0183008    
0.6355       0.0117144    0.000115238  0.0184333    
0.63788      0.011843     0.000116046  0.0185663    
0.64026      0.0119726    0.000116856  0.0186996    
0.64264      0.0121031    0.000117668  0.0188334    
0.64502      0.0122345    0.000118483  0.0189676    
0.6474       0.0123668    0.000119299  0.0191022    
0.64978      0.0125       0.000120118  0.0192372    
0.65216      0.0126341    0.000120939  0.0193727    
0.65454      0.0127691    0.000121762  0.0195085    
0.65692      0.012905     0.000122587  0.0196448    
0.6593       0.0130419    0.000123414  0.0197815    
0.66168      0.0131797    0.000124244  0.0199185    
0.66406      0.0133184    0.000125075  0.020056     
0.66644      0.013458     0.000125909  0.0201939    
0.66882      0.0135986    0.000126744  0.0203322    
0.6712       0.0137401    0.000127582  0.0204709    
0.67358      0.0138825    0.000128422  0.0206101    
0.67596      0.0140259    0.000129263  0.0207496    
0.67834      0.0141702    0.000130107  0.0208895    
0.68072      0.0143154    0.000130953  0.0210298    
0.6831       0.0144616    0.000131801  0.0211706    
0.68548      0.0146087    0.000132651  0.0213117    
0.68786      0.0147568    0.000133503  0.0214532    
0.69024      0.0149058    0.000134357  0.0215951    
0.69262      0.0150558    0.000135213  0.0217375    
0.695        0.0152067    0.00013607   0.0218802    
0.69738      0.0153586    0.00013693   0.0220233    
0.69976      0.0155115    0.000137792  0.0221668    
0.70214      0.0156653    0.000138656  0.0223107    
0.70452      0.01582      0.000139521  0.022455     
0.7069       0.0159758    0.000140389  0.0225997    
0.70928      0.0161324    0.000141259  0.0227448    
0.71166      0.0162901    0.00014213   0.0228903    
0.71404      0.0164487    0.000143003  0.0230362    
0.71642      0.0166083    0.000143878  0.0231824    
0.7188       0.0167689    0.000144756  0.0233291    
0.72118      0.0169305    0.000145634  0.0234761    
0.72356      0.017093     0.000146515  0.0236235    
0.72594      0.0172565    0.000147398  0.0237713    
0.72832      0.017421     0.000148282  0.0239195    
0.7307       0.0175865    0.000149169  0.0240681    
0.73308      0.017753     0.000150057  0.024217     
0.73546      0.0179205    0.000150947  0.0243663    
0.73784      0.0180889    0.000151839  0.024516     
0.74022      0.0182584    0.000152732  0.0246661    
0.7426       0.0184288    0.000153627  0.0248166    
0.74498      0.0186003    0.000154525  0.0249675    
0.74736      0.0187727    0.000155423  0.0251187    
0.74974      0.0189461    0.000156324  0.0252703    
0.75212      0.0191206    0.000157226  0.0254222    
0.7545       0.019296     0.00015813   0.0255746    
0.75688      0.0194725    0.000159036  0.0257273    
0.75926      0.0196499    0.000159944  0.0258804    
0.76164      0.0198284    0.000160853  0.0260338    
0.76402      0.0200079    0.000161764  0.0261877    
0.7664       0.0201884    0.000162676  0.0263419    
0.76878      0.0203699    0.000163591  0.0264964    
0.77116      0.0205525    0.000164506  0.0266514    
0.77354      0.020736     0.000165424  0.0268067    
0.77592      0.0209206    0.000166343  0.0269623    
0.7783       0.0211062    0.000167264  0.0271183    
0.78068      0.0212928    0.000168186  0.0272747    
0.78306      0.0214805    0.000169111  0.0274315    
0.78544      0.0216692    0.000170036  0.0275886    
0.78782      0.0218589    0.000170963  0.027746     
0.7902       0.0220496    0.000171892  0.0279039    
0.79258      0.0222414    0.000172823  0.028062     
0.79496      0.0224342    0.000173754  0.0282206    
0.79734      0.0226281    0.000174688  0.0283795    
0.79972      0.022823     0.000175623  0.0285387    
0.8021       0.0230189    0.000176559  0.0286983    
0.80448      0.0232159    0.000177498  0.0288583    
0.80686      0.0234139    0.000178437  0.0290186    
0.80924      0.023613     0.000179378  0.0291792    
0.81162      0.0238131    0.000180321  0.0293402    
0.814        0.0240143    0.000181265  0.0295016    
0.81638      0.0242165    0.00018221   0.0296633    
0.81876      0.0244198    0.000183157  0.0298253    
0.82114      0.0246241    0.000184105  0.0299877    
0.82352      0.0248295    0.000185055  0.0301504    
0.8259       0.0250359    0.000186006  0.0303135    
0.82828      0.0252434    0.000186959  0.0304769    
0.83066      0.025452     0.000187913  0.0306407    
0.83304      0.0256616    0.000188868  0.0308047    
0.83542      0.0258723    0.000189825  0.0309692    
0.8378       0.026084     0.000190783  0.0311339    
0.84018      0.0262968    0.000191743  0.0312991    
0.84256      0.0265107    0.000192704  0.0314645    
0.84494      0.0267257    0.000193666  0.0316303    
0.84732      0.0269417    0.000194629  0.0317964    
0.8497       0.0271588    0.000195594  0.0319628    
0.85208      0.027377     0.00019656   0.0321296    
0.85446      0.0275962    0.000197527  0.0322967    
0.85684      0.0278166    0.000198496  0.0324641    
0.85922      0.028038     0.000199466  0.0326319    
0.8616       0.0282605    0.000200437  0.0328       
0.86398      0.028484     0.00020141   0.0329684    
0.86636      0.0287087    0.000202383  0.0331371    
0.86874      0.0289344    0.000203358  0.0333062    
0.87112      0.0291612    0.000204334  0.0334756    
0.8735       0.0293891    0.000205312  0.0336453    
0.87588      0.0296181    0.00020629   0.0338153    
0.87826      0.0298482    0.00020727   0.0339856    
0.88064      0.0300794    0.000208251  0.0341563    
0.88302      0.0303116    0.000209233  0.0343272    
0.8854       0.030545     0.000210216  0.0344985    
0.88778      0.0307795    0.0002112    0.0346701    
0.89016      0.031015     0.000212185  0.0348421    
0.89254      0.0312517    0.000213172  0.0350143    
0.89492      0.0314894    0.000214159  0.0351868    
0.8973       0.0317282    0.000215148  0.0353597    
0.89968      0.0319682    0.000216138  0.0355328    
0.90206      0.0322092    0.000217129  0.0357063    
0.90444      0.0324514    0.000218121  0.0358801    
0.90682      0.0326946    0.000219114  0.0360542    
0.9092       0.032939     0.000220108  0.0362286    
0.91158      0.0331845    0.000221103  0.0364032    
0.91396      0.033431     0.000222099  0.0365782    
0.91634      0.0336787    0.000223096  0.0367535    
0.91872      0.0339275    0.000224094  0.0369291    
0.9211       0.0341774    0.000225093  0.037105     
0.92348      0.0344284    0.000226093  0.0372812    
0.92586      0.0346806    0.000227094  0.0374577    
0.92824      0.0349338    0.000228095  0.0376345    
0.93062      0.0351882    0.000229098  0.0378115    
0.933        0.0354437    0.000230102  0.0379889    
0.93538      0.0357002    0.000231107  0.0381666    
0.93776      0.035958     0.000232112  0.0383445    
0.94014      0.0362168    0.000233118  0.0385228    
0.94252      0.0364767    0.000234126  0.0387013    
0.9449       0.0367378    0.000235134  0.0388801    
0.94728      0.037        0.000236143  0.0390592    
0.94966      0.0372633    0.000237153  0.0392386    
0.95204      0.0375278    0.000238163  0.0394183    
0.95442      0.0377933    0.000239175  0.0395982    
0.9568       0.03806      0.000240187  0.0397784    
0.95918      0.0383278    0.0002412    0.039959     
0.96156      0.0385968    0.000242214  0.0401398    
0.96394      0.0388669    0.000243229  0.0403208    
0.96632      0.0391381    0.000244244  0.0405022    
0.9687       0.0394104    0.00024526   0.0406838    
0.97108      0.0396839    0.000246277  0.0408657    
0.97346      0.0399585    0.000247294  0.0410479    
0.97584      0.0402342    0.000248313  0.0412303    
0.97822      0.0405111    0.000249332  0.041413     
0.9806       0.0407891    0.000250351  0.041596     
0.98298      0.0410682    0.000251372  0.0417793    
