# Mass = 0.0479598 Mev*(hbarc)^2/2 
# R = 7.46549 fm 
# a = 0.662 fm 
# V0 = 59.5746 MeV 
# RSO = 6.86114 fm 
# aSO = 0.662 fm 
# VSO = 27.9312 MeV fm^2
# n = 1 
# l = 3 
# two_j = 7 
# two_t = 1 
# Energy = -22.2616 MeV
# r          u            Phi          u/r          
0.1          1.43281e-06  5.161e-08    1.43281e-05  
0.10238      1.57415e-06  5.53775e-08  1.53756e-05  
0.10476      1.72569e-06  5.93241e-08  1.64728e-05  
0.10714      1.8879e-06   6.34537e-08  1.76208e-05  
0.10952      2.06127e-06  6.77705e-08  1.88209e-05  
0.1119       2.2463e-06   7.22786e-08  2.00741e-05  
0.11428      2.4435e-06   7.69821e-08  2.13817e-05  
0.11666      2.65339e-06  8.1885e-08   2.27447e-05  
0.11904      2.87652e-06  8.69915e-08  2.41643e-05  
0.12142      3.11341e-06  9.23056e-08  2.56416e-05  
0.1238       3.36462e-06  9.78314e-08  2.71779e-05  
0.12618      3.63073e-06  1.03573e-07  2.87742e-05  
0.12856      3.9123e-06   1.09535e-07  3.04317e-05  
0.13094      4.20992e-06  1.1572e-07   3.21515e-05  
0.13332      4.52419e-06  1.22134e-07  3.39348e-05  
0.1357       4.85571e-06  1.28779e-07  3.57827e-05  
0.13808      5.20511e-06  1.35661e-07  3.76964e-05  
0.14046      5.57302e-06  1.42783e-07  3.96769e-05  
0.14284      5.96007e-06  1.50149e-07  4.17255e-05  
0.14522      6.36692e-06  1.57764e-07  4.38433e-05  
0.1476       6.79422e-06  1.65631e-07  4.60313e-05  
0.14998      7.24266e-06  1.73755e-07  4.82908e-05  
0.15236      7.71291e-06  1.82139e-07  5.06229e-05  
0.15474      8.20566e-06  1.90787e-07  5.30287e-05  
0.15712      8.72163e-06  1.99704e-07  5.55094e-05  
0.1595       9.26153e-06  2.08894e-07  5.8066e-05   
0.16188      9.82607e-06  2.1836e-07   6.06997e-05  
0.16426      1.0416e-05   2.28107e-07  6.34117e-05  
0.16664      1.10321e-05  2.38138e-07  6.62031e-05  
0.16902      1.1675e-05   2.48458e-07  6.90749e-05  
0.1714       1.23457e-05  2.59071e-07  7.20284e-05  
0.17378      1.30447e-05  2.6998e-07   7.50647e-05  
0.17616      1.3773e-05   2.81191e-07  7.81848e-05  
0.17854      1.45314e-05  2.92705e-07  8.139e-05    
0.18092      1.53205e-05  3.04528e-07  8.46812e-05  
0.1833       1.61414e-05  3.16664e-07  8.80598e-05  
0.18568      1.69947e-05  3.29117e-07  9.15267e-05  
0.18806      1.78813e-05  3.4189e-07   9.50831e-05  
0.19044      1.88022e-05  3.54987e-07  9.87301e-05  
0.19282      1.97581e-05  3.68413e-07  0.000102469  
0.1952       2.07499e-05  3.82172e-07  0.000106301  
0.19758      2.17785e-05  3.96266e-07  0.000110226  
0.19996      2.28448e-05  4.10702e-07  0.000114247  
0.20234      2.39497e-05  4.25481e-07  0.000118364  
0.20472      2.50942e-05  4.40608e-07  0.000122578  
0.2071       2.62791e-05  4.56088e-07  0.000126891  
0.20948      2.75053e-05  4.71923e-07  0.000131303  
0.21186      2.87739e-05  4.88119e-07  0.000135816  
0.21424      3.00858e-05  5.04678e-07  0.00014043   
0.21662      3.1442e-05   5.21605e-07  0.000145148  
0.219        3.28433e-05  5.38904e-07  0.000149969  
0.22138      3.42909e-05  5.56578e-07  0.000154896  
0.22376      3.57857e-05  5.74631e-07  0.000159929  
0.22614      3.73287e-05  5.93068e-07  0.000165069  
0.22852      3.89209e-05  6.11892e-07  0.000170317  
0.2309       4.05635e-05  6.31107e-07  0.000175675  
0.23328      4.22573e-05  6.50717e-07  0.000181144  
0.23566      4.40035e-05  6.70725e-07  0.000186724  
0.23804      4.5803e-05   6.91136e-07  0.000192417  
0.24042      4.76571e-05  7.11953e-07  0.000198224  
0.2428       4.95667e-05  7.33181e-07  0.000204146  
0.24518      5.1533e-05   7.54822e-07  0.000210184  
0.24756      5.35571e-05  7.76882e-07  0.00021634   
0.24994      5.56399e-05  7.99363e-07  0.000222613  
0.25232      5.77828e-05  8.22269e-07  0.000229006  
0.2547       5.99868e-05  8.45605e-07  0.000235519  
0.25708      6.2253e-05   8.69373e-07  0.000242154  
0.25946      6.45826e-05  8.93579e-07  0.000248912  
0.26184      6.69768e-05  9.18225e-07  0.000255793  
0.26422      6.94367e-05  9.43315e-07  0.000262799  
0.2666       7.19635e-05  9.68853e-07  0.000269931  
0.26898      7.45584e-05  9.94843e-07  0.000277189  
0.27136      7.72226e-05  1.02129e-06  0.000284576  
0.27374      7.99572e-05  1.04819e-06  0.000292092  
0.27612      8.27636e-05  1.07556e-06  0.000299738  
0.2785       8.5643e-05   1.1034e-06   0.000307515  
0.28088      8.85965e-05  1.1317e-06   0.000315425  
0.28326      9.16255e-05  1.16048e-06  0.000323468  
0.28564      9.47312e-05  1.18974e-06  0.000331645  
0.28802      9.79148e-05  1.21948e-06  0.000339958  
0.2904       0.000101178  1.2497e-06   0.000348408  
0.29278      0.000104521  1.28041e-06  0.000356995  
0.29516      0.000107946  1.31162e-06  0.000365721  
0.29754      0.000111455  1.34332e-06  0.000374587  
0.29992      0.000115047  1.37552e-06  0.000383594  
0.3023       0.000118726  1.40822e-06  0.000392742  
0.30468      0.000122492  1.44144e-06  0.000402034  
0.30706      0.000126346  1.47516e-06  0.000411469  
0.30944      0.00013029   1.50939e-06  0.00042105   
0.31182      0.000134325  1.54415e-06  0.000430777  
0.3142       0.000138452  1.57942e-06  0.000440651  
0.31658      0.000142674  1.61523e-06  0.000450673  
0.31896      0.000146991  1.65155e-06  0.000460844  
0.32134      0.000151404  1.68842e-06  0.000471166  
0.32372      0.000155916  1.72581e-06  0.000481639  
0.3261       0.000160527  1.76375e-06  0.000492265  
0.32848      0.00016524   1.80223e-06  0.000503044  
0.33086      0.000170054  1.84126e-06  0.000513977  
0.33324      0.000174973  1.88083e-06  0.000525066  
0.33562      0.000179997  1.92096e-06  0.000536311  
0.338        0.000185128  1.96165e-06  0.000547715  
0.34038      0.000190366  2.00289e-06  0.000559276  
0.34276      0.000195715  2.0447e-06   0.000570998  
0.34514      0.000201175  2.08708e-06  0.00058288   
0.34752      0.000206748  2.13003e-06  0.000594924  
0.3499       0.000212435  2.17355e-06  0.00060713   
0.35228      0.000218238  2.21765e-06  0.0006195    
0.35466      0.000224158  2.26233e-06  0.000632035  
0.35704      0.000230197  2.30759e-06  0.000644736  
0.35942      0.000236356  2.35345e-06  0.000657604  
0.3618       0.000242637  2.39989e-06  0.000670639  
0.36418      0.000249042  2.44693e-06  0.000683844  
0.36656      0.000255572  2.49457e-06  0.000697218  
0.36894      0.000262229  2.54281e-06  0.000710763  
0.37132      0.000269014  2.59165e-06  0.00072448   
0.3737       0.000275929  2.6411e-06   0.000738369  
0.37608      0.000282975  2.69117e-06  0.000752433  
0.37846      0.000290154  2.74184e-06  0.000766672  
0.38084      0.000297469  2.79314e-06  0.000781086  
0.38322      0.000304919  2.84506e-06  0.000795677  
0.3856       0.000312508  2.8976e-06   0.000810446  
0.38798      0.000320236  2.95077e-06  0.000825394  
0.39036      0.000328106  3.00457e-06  0.000840522  
0.39274      0.000336119  3.05901e-06  0.000855831  
0.39512      0.000344276  3.11408e-06  0.000871321  
0.3975       0.00035258   3.16979e-06  0.000886995  
0.39988      0.000361032  3.22615e-06  0.000902852  
0.40226      0.000369634  3.28316e-06  0.000918894  
0.40464      0.000378387  3.34082e-06  0.000935121  
0.40702      0.000387294  3.39913e-06  0.000951536  
0.4094       0.000396356  3.4581e-06   0.000968138  
0.41178      0.000405574  3.51772e-06  0.000984929  
0.41416      0.000414951  3.57802e-06  0.00100191   
0.41654      0.000424488  3.63897e-06  0.00101908   
0.41892      0.000434187  3.7006e-06   0.00103644   
0.4213       0.000444049  3.7629e-06   0.001054     
0.42368      0.000454078  3.82588e-06  0.00107175   
0.42606      0.000464273  3.88953e-06  0.00108969   
0.42844      0.000474638  3.95387e-06  0.00110783   
0.43082      0.000485174  4.0189e-06   0.00112616   
0.4332       0.000495882  4.08461e-06  0.0011447    
0.43558      0.000506765  4.15101e-06  0.00116343   
0.43796      0.000517825  4.21811e-06  0.00118236   
0.44034      0.000529063  4.2859e-06   0.00120149   
0.44272      0.00054048   4.3544e-06   0.00122082   
0.4451       0.00055208   4.42359e-06  0.00124035   
0.44748      0.000563864  4.4935e-06   0.00126009   
0.44986      0.000575833  4.56411e-06  0.00128003   
0.45224      0.00058799   4.63544e-06  0.00130017   
0.45462      0.000600337  4.70748e-06  0.00132052   
0.457        0.000612874  4.78024e-06  0.00134108   
0.45938      0.000625605  4.85372e-06  0.00136185   
0.46176      0.000638531  4.92793e-06  0.00138282   
0.46414      0.000651655  5.00286e-06  0.001404     
0.46652      0.000664977  5.07852e-06  0.0014254    
0.4689       0.0006785    5.15492e-06  0.001447     
0.47128      0.000692226  5.23205e-06  0.00146882   
0.47366      0.000706157  5.30992e-06  0.00149085   
0.47604      0.000720295  5.38853e-06  0.0015131    
0.47842      0.000734641  5.46789e-06  0.00153556   
0.4808       0.000749198  5.54799e-06  0.00155823   
0.48318      0.000763968  5.62884e-06  0.00158112   
0.48556      0.000778952  5.71045e-06  0.00160424   
0.48794      0.000794154  5.79281e-06  0.00162756   
0.49032      0.000809573  5.87593e-06  0.00165111   
0.4927       0.000825214  5.95981e-06  0.00167488   
0.49508      0.000841077  6.04445e-06  0.00169887   
0.49746      0.000857165  6.12986e-06  0.00172308   
0.49984      0.00087348   6.21604e-06  0.00174752   
0.50222      0.000890024  6.30299e-06  0.00177218   
0.5046       0.000906798  6.39072e-06  0.00179706   
0.50698      0.000923805  6.47922e-06  0.00182217   
0.50936      0.000941047  6.5685e-06   0.00184751   
0.51174      0.000958527  6.65857e-06  0.00187307   
0.51412      0.000976245  6.74942e-06  0.00189887   
0.5165       0.000994204  6.84106e-06  0.00192489   
0.51888      0.00101241   6.93349e-06  0.00195114   
0.52126      0.00103085   7.02671e-06  0.00197762   
0.52364      0.00104955   7.12073e-06  0.00200434   
0.52602      0.0010685    7.21554e-06  0.00203128   
0.5284       0.00108769   7.31116e-06  0.00205846   
0.53078      0.00110714   7.40758e-06  0.00208588   
0.53316      0.00112685   7.5048e-06   0.00211353   
0.53554      0.00114681   7.60284e-06  0.00214141   
0.53792      0.00116704   7.70168e-06  0.00216954   
0.5403       0.00118752   7.80134e-06  0.0021979    
0.54268      0.00120828   7.90181e-06  0.0022265    
0.54506      0.00122929   8.0031e-06   0.00225534   
0.54744      0.00125058   8.10522e-06  0.00228441   
0.54982      0.00127214   8.20815e-06  0.00231373   
0.5522       0.00129397   8.31191e-06  0.0023433    
0.55458      0.00131607   8.4165e-06   0.0023731    
0.55696      0.00133846   8.52192e-06  0.00240315   
0.55934      0.00136112   8.62817e-06  0.00243344   
0.56172      0.00138407   8.73525e-06  0.00246398   
0.5641       0.0014073    8.84318e-06  0.00249476   
0.56648      0.00143081   8.95194e-06  0.00252579   
0.56886      0.00145462   9.06155e-06  0.00255707   
0.57124      0.00147871   9.17199e-06  0.0025886    
0.57362      0.0015031    9.28329e-06  0.00262038   
0.576        0.00152778   9.39543e-06  0.0026524    
0.57838      0.00155276   9.50843e-06  0.00268468   
0.58076      0.00157804   9.62228e-06  0.00271721   
0.58314      0.00160363   9.73698e-06  0.00274999   
0.58552      0.00162951   9.85254e-06  0.00278302   
0.5879       0.00165571   9.96896e-06  0.00281631   
0.59028      0.00168221   1.00862e-05  0.00284985   
0.59266      0.00170902   1.02044e-05  0.00288365   
0.59504      0.00173615   1.03234e-05  0.0029177    
0.59742      0.00176359   1.04433e-05  0.00295202   
0.5998       0.00179135   1.0564e-05   0.00298659   
0.60218      0.00181944   1.06857e-05  0.00302141   
0.60456      0.00184784   1.08082e-05  0.0030565    
0.60694      0.00187657   1.09315e-05  0.00309185   
0.60932      0.00190562   1.10558e-05  0.00312746   
0.6117       0.00193501   1.11809e-05  0.00316333   
0.61408      0.00196473   1.13069e-05  0.00319946   
0.61646      0.00199478   1.14339e-05  0.00323586   
0.61884      0.00202516   1.15616e-05  0.00327252   
0.62122      0.00205589   1.16903e-05  0.00330944   
0.6236       0.00208696   1.18199e-05  0.00334663   
0.62598      0.00211837   1.19504e-05  0.00338409   
0.62836      0.00215013   1.20817e-05  0.00342181   
0.63074      0.00218224   1.2214e-05   0.0034598    
0.63312      0.00221469   1.23471e-05  0.00349806   
0.6355       0.0022475    1.24812e-05  0.00353659   
0.63788      0.00228067   1.26161e-05  0.00357539   
0.64026      0.00231419   1.2752e-05   0.00361446   
0.64264      0.00234807   1.28887e-05  0.00365379   
0.64502      0.00238232   1.30264e-05  0.00369341   
0.6474       0.00241693   1.3165e-05   0.00373329   
0.64978      0.00245191   1.33045e-05  0.00377345   
0.65216      0.00248726   1.34449e-05  0.00381388   
0.65454      0.00252298   1.35862e-05  0.00385459   
0.65692      0.00255908   1.37284e-05  0.00389557   
0.6593       0.00259555   1.38716e-05  0.00393683   
0.66168      0.0026324    1.40157e-05  0.00397836   
0.66406      0.00266964   1.41607e-05  0.00402017   
0.66644      0.00270725   1.43066e-05  0.00406226   
0.66882      0.00274526   1.44534e-05  0.00410463   
0.6712       0.00278366   1.46012e-05  0.00414728   
0.67358      0.00282244   1.47499e-05  0.00419021   
0.67596      0.00286162   1.48995e-05  0.00423342   
0.67834      0.0029012    1.50501e-05  0.00427691   
0.68072      0.00294118   1.52016e-05  0.00432069   
0.6831       0.00298156   1.5354e-05   0.00436474   
0.68548      0.00302234   1.55074e-05  0.00440908   
0.68786      0.00306353   1.56617e-05  0.00445371   
0.69024      0.00310513   1.58169e-05  0.00449862   
0.69262      0.00314714   1.59731e-05  0.00454381   
0.695        0.00318956   1.61302e-05  0.00458929   
0.69738      0.0032324    1.62883e-05  0.00463506   
0.69976      0.00327566   1.64473e-05  0.00468112   
0.70214      0.00331934   1.66072e-05  0.00472746   
0.70452      0.00336344   1.67681e-05  0.00477409   
0.7069       0.00340798   1.693e-05    0.00482102   
0.70928      0.00345294   1.70928e-05  0.00486823   
0.71166      0.00349833   1.72565e-05  0.00491573   
0.71404      0.00354415   1.74212e-05  0.00496352   
0.71642      0.00359042   1.75869e-05  0.00501161   
0.7188       0.00363712   1.77535e-05  0.00505999   
0.72118      0.00368426   1.79211e-05  0.00510866   
0.72356      0.00373185   1.80896e-05  0.00515762   
0.72594      0.00377988   1.82591e-05  0.00520688   
0.72832      0.00382837   1.84295e-05  0.00525643   
0.7307       0.0038773    1.8601e-05   0.00530628   
0.73308      0.00392669   1.87733e-05  0.00535643   
0.73546      0.00397654   1.89467e-05  0.00540687   
0.73784      0.00402684   1.9121e-05   0.00545761   
0.74022      0.00407761   1.92962e-05  0.00550864   
0.7426       0.00412884   1.94725e-05  0.00555998   
0.74498      0.00418054   1.96497e-05  0.00561161   
0.74736      0.00423271   1.98278e-05  0.00566355   
0.74974      0.00428535   2.0007e-05   0.00571578   
0.75212      0.00433846   2.01871e-05  0.00576831   
0.7545       0.00439206   2.03682e-05  0.00582115   
0.75688      0.00444613   2.05503e-05  0.00587429   
0.75926      0.00450069   2.07333e-05  0.00592773   
0.76164      0.00455573   2.09173e-05  0.00598147   
0.76402      0.00461125   2.11023e-05  0.00603552   
0.7664       0.00466727   2.12883e-05  0.00608986   
0.76878      0.00472378   2.14752e-05  0.00614452   
0.77116      0.00478079   2.16631e-05  0.00619948   
0.77354      0.00483829   2.1852e-05   0.00625474   
0.77592      0.0048963    2.20419e-05  0.00631031   
0.7783       0.00495481   2.22328e-05  0.00636619   
0.78068      0.00501382   2.24247e-05  0.00642238   
0.78306      0.00507334   2.26175e-05  0.00647887   
0.78544      0.00513338   2.28113e-05  0.00653567   
0.78782      0.00519392   2.30061e-05  0.00659278   
0.7902       0.00525499   2.32019e-05  0.0066502    
0.79258      0.00531657   2.33987e-05  0.00670793   
0.79496      0.00537867   2.35964e-05  0.00676596   
0.79734      0.0054413    2.37952e-05  0.00682431   
0.79972      0.00550445   2.39949e-05  0.00688297   
0.8021       0.00556813   2.41957e-05  0.00694195   
0.80448      0.00563235   2.43974e-05  0.00700123   
0.80686      0.0056971    2.46001e-05  0.00706083   
0.80924      0.00576238   2.48038e-05  0.00712074   
0.81162      0.00582821   2.50085e-05  0.00718096   
0.814        0.00589458   2.52142e-05  0.0072415    
0.81638      0.00596149   2.54209e-05  0.00730235   
0.81876      0.00602895   2.56285e-05  0.00736352   
0.82114      0.00609696   2.58372e-05  0.007425     
0.82352      0.00616553   2.60469e-05  0.0074868    
0.8259       0.00623465   2.62575e-05  0.00754891   
0.82828      0.00630432   2.64692e-05  0.00761134   
0.83066      0.00637456   2.66818e-05  0.00767409   
0.83304      0.00644536   2.68955e-05  0.00773716   
0.83542      0.00651673   2.71101e-05  0.00780054   
0.8378       0.00658867   2.73258e-05  0.00786425   
0.84018      0.00666117   2.75424e-05  0.00792827   
0.84256      0.00673425   2.776e-05    0.00799261   
0.84494      0.00680791   2.79787e-05  0.00805727   
0.84732      0.00688215   2.81983e-05  0.00812225   
0.8497       0.00695697   2.84189e-05  0.00818756   
0.85208      0.00703237   2.86406e-05  0.00825318   
0.85446      0.00710836   2.88632e-05  0.00831913   
0.85684      0.00718494   2.90868e-05  0.00838539   
0.85922      0.00726211   2.93115e-05  0.00845198   
0.8616       0.00733988   2.95371e-05  0.00851889   
0.86398      0.00741824   2.97637e-05  0.00858613   
0.86636      0.00749721   2.99914e-05  0.00865369   
0.86874      0.00757678   3.022e-05    0.00872157   
0.87112      0.00765695   3.04496e-05  0.00878978   
0.8735       0.00773773   3.06803e-05  0.00885831   
0.87588      0.00781913   3.09119e-05  0.00892717   
0.87826      0.00790113   3.11445e-05  0.00899635   
0.88064      0.00798376   3.13782e-05  0.00906586   
0.88302      0.008067     3.16128e-05  0.00913569   
0.8854       0.00815086   3.18484e-05  0.00920585   
0.88778      0.00823535   3.20851e-05  0.00927634   
0.89016      0.00832046   3.23227e-05  0.00934715   
0.89254      0.0084062    3.25614e-05  0.00941829   
0.89492      0.00849258   3.2801e-05   0.00948976   
0.8973       0.00857959   3.30416e-05  0.00956156   
0.89968      0.00866723   3.32833e-05  0.00963369   
0.90206      0.00875552   3.35259e-05  0.00970614   
0.90444      0.00884445   3.37696e-05  0.00977893   
0.90682      0.00893403   3.40142e-05  0.00985204   
0.9092       0.00902425   3.42599e-05  0.00992548   
0.91158      0.00911512   3.45065e-05  0.00999926   
0.91396      0.00920665   3.47541e-05  0.0100734    
0.91634      0.00929883   3.50028e-05  0.0101478    
0.91872      0.00939167   3.52524e-05  0.0102226    
0.9211       0.00948517   3.55031e-05  0.0102977    
0.92348      0.00957934   3.57547e-05  0.0103731    
0.92586      0.00967417   3.60073e-05  0.0104488    
0.92824      0.00976967   3.6261e-05   0.0105249    
0.93062      0.00986585   3.65156e-05  0.0106014    
0.933        0.00996269   3.67712e-05  0.0106781    
0.93538      0.0100602    3.70279e-05  0.0107552    
0.93776      0.0101584    3.72855e-05  0.0108326    
0.94014      0.0102573    3.75441e-05  0.0109104    
0.94252      0.0103569    3.78037e-05  0.0109885    
0.9449       0.0104571    3.80643e-05  0.0110669    
0.94728      0.0105581    3.8326e-05   0.0111457    
0.94966      0.0106597    3.85886e-05  0.0112248    
0.95204      0.0107621    3.88521e-05  0.0113042    
0.95442      0.0108651    3.91167e-05  0.011384     
0.9568       0.0109688    3.93823e-05  0.0114641    
0.95918      0.0110733    3.96489e-05  0.0115445    
0.96156      0.0111784    3.99164e-05  0.0116253    
0.96394      0.0112843    4.0185e-05   0.0117064    
0.96632      0.0113908    4.04545e-05  0.0117878    
0.9687       0.0114981    4.07251e-05  0.0118696    
0.97108      0.0116061    4.09966e-05  0.0119517    
0.97346      0.0117148    4.12691e-05  0.0120342    
0.97584      0.0118242    4.15426e-05  0.012117     
0.97822      0.0119344    4.18171e-05  0.0122001    
0.9806       0.0120453    4.20925e-05  0.0122836    
0.98298      0.0121569    4.2369e-05   0.0123674    
