# Mass = 0.0479598 Mev*(hbarc)^2/2 
# R = 7.46549 fm 
# a = 0.662 fm 
# V0 = 59.5746 MeV 
# RSO = 6.86114 fm 
# aSO = 0.662 fm 
# VSO = 27.9312 MeV fm^2
# n = 0 
# l = 1 
# two_j = 1 
# two_t = 1 
# Energy = -50.5111 MeV
# r          u            Phi          u/r          
0.1          0.00076345   1.1463e-06   0.0076345    
0.10238      0.000800222  1.17352e-06  0.00781619   
0.10476      0.000837856  1.20074e-06  0.00799787   
0.10714      0.000876354  1.22796e-06  0.00817952   
0.10952      0.000915714  1.25517e-06  0.00836116   
0.1119       0.000955937  1.28238e-06  0.00854278   
0.11428      0.000997022  1.30958e-06  0.00872438   
0.11666      0.00103897   1.33679e-06  0.00890597   
0.11904      0.00108178   1.36398e-06  0.00908754   
0.12142      0.00112545   1.39118e-06  0.00926909   
0.1238       0.00116999   1.41837e-06  0.00945062   
0.12618      0.00121538   1.44556e-06  0.00963214   
0.12856      0.00126164   1.47274e-06  0.00981364   
0.13094      0.00130876   1.49992e-06  0.00999512   
0.13332      0.00135674   1.52709e-06  0.0101766    
0.1357       0.00140559   1.55426e-06  0.010358     
0.13808      0.00145529   1.58143e-06  0.0105395    
0.14046      0.00150585   1.60859e-06  0.0107209    
0.14284      0.00155728   1.63574e-06  0.0109023    
0.14522      0.00160957   1.6629e-06   0.0110836    
0.1476       0.00166271   1.69004e-06  0.011265     
0.14998      0.00171672   1.71719e-06  0.0114463    
0.15236      0.00177159   1.74432e-06  0.0116277    
0.15474      0.00182732   1.77145e-06  0.011809     
0.15712      0.00188391   1.79858e-06  0.0119903    
0.1595       0.00194136   1.8257e-06   0.0121715    
0.16188      0.00199967   1.85282e-06  0.0123528    
0.16426      0.00205883   1.87993e-06  0.012534     
0.16664      0.00211886   1.90704e-06  0.0127152    
0.16902      0.00217975   1.93414e-06  0.0128964    
0.1714       0.00224149   1.96123e-06  0.0130776    
0.17378      0.0023041    1.98832e-06  0.0132587    
0.17616      0.00236756   2.0154e-06   0.0134398    
0.17854      0.00243188   2.04248e-06  0.0136209    
0.18092      0.00249706   2.06955e-06  0.013802     
0.1833       0.0025631    2.09661e-06  0.0139831    
0.18568      0.00263      2.12367e-06  0.0141641    
0.18806      0.00269775   2.15073e-06  0.0143452    
0.19044      0.00276636   2.17777e-06  0.0145262    
0.19282      0.00283583   2.20481e-06  0.0147071    
0.1952       0.00290616   2.23185e-06  0.0148881    
0.19758      0.00297734   2.25887e-06  0.015069     
0.19996      0.00304938   2.28589e-06  0.0152499    
0.20234      0.00312228   2.31291e-06  0.0154308    
0.20472      0.00319603   2.33991e-06  0.0156117    
0.2071       0.00327064   2.36691e-06  0.0157925    
0.20948      0.0033461    2.39391e-06  0.0159734    
0.21186      0.00342242   2.42089e-06  0.0161542    
0.21424      0.00349959   2.44787e-06  0.0163349    
0.21662      0.00357762   2.47484e-06  0.0165157    
0.219        0.00365651   2.50181e-06  0.0166964    
0.22138      0.00373625   2.52876e-06  0.0168771    
0.22376      0.00381684   2.55571e-06  0.0170578    
0.22614      0.00389829   2.58265e-06  0.0172384    
0.22852      0.0039806    2.60959e-06  0.017419     
0.2309       0.00406375   2.63651e-06  0.0175996    
0.23328      0.00414776   2.66343e-06  0.0177802    
0.23566      0.00423262   2.69034e-06  0.0179607    
0.23804      0.00431834   2.71725e-06  0.0181412    
0.24042      0.00440491   2.74414e-06  0.0183217    
0.2428       0.00449233   2.77103e-06  0.0185022    
0.24518      0.0045806    2.79791e-06  0.0186826    
0.24756      0.00466973   2.82478e-06  0.018863     
0.24994      0.00475971   2.85164e-06  0.0190434    
0.25232      0.00485054   2.87849e-06  0.0192237    
0.2547       0.00494222   2.90534e-06  0.0194041    
0.25708      0.00503475   2.93218e-06  0.0195844    
0.25946      0.00512813   2.959e-06    0.0197646    
0.26184      0.00522236   2.98582e-06  0.0199449    
0.26422      0.00531744   3.01263e-06  0.0201251    
0.2666       0.00541337   3.03944e-06  0.0203052    
0.26898      0.00551015   3.06623e-06  0.0204854    
0.27136      0.00560779   3.09301e-06  0.0206655    
0.27374      0.00570626   3.11979e-06  0.0208456    
0.27612      0.00580559   3.14655e-06  0.0210256    
0.2785       0.00590577   3.17331e-06  0.0212056    
0.28088      0.00600679   3.20005e-06  0.0213856    
0.28326      0.00610867   3.22679e-06  0.0215656    
0.28564      0.00621139   3.25352e-06  0.0217455    
0.28802      0.00631495   3.28024e-06  0.0219254    
0.2904       0.00641937   3.30694e-06  0.0221053    
0.29278      0.00652463   3.33364e-06  0.0222851    
0.29516      0.00663073   3.36033e-06  0.0224649    
0.29754      0.00673769   3.38701e-06  0.0226446    
0.29992      0.00684548   3.41368e-06  0.0228244    
0.3023       0.00695413   3.44034e-06  0.0230041    
0.30468      0.00706362   3.46699e-06  0.0231837    
0.30706      0.00717395   3.49363e-06  0.0233633    
0.30944      0.00728513   3.52025e-06  0.0235429    
0.31182      0.00739715   3.54687e-06  0.0237225    
0.3142       0.00751001   3.57348e-06  0.023902     
0.31658      0.00762372   3.60007e-06  0.0240815    
0.31896      0.00773827   3.62666e-06  0.024261     
0.32134      0.00785367   3.65324e-06  0.0244404    
0.32372      0.0079699    3.6798e-06   0.0246197    
0.3261       0.00808698   3.70635e-06  0.0247991    
0.32848      0.0082049    3.7329e-06   0.0249784    
0.33086      0.00832366   3.75943e-06  0.0251577    
0.33324      0.00844327   3.78595e-06  0.0253369    
0.33562      0.00856371   3.81246e-06  0.0255161    
0.338        0.00868499   3.83896e-06  0.0256952    
0.34038      0.00880712   3.86544e-06  0.0258744    
0.34276      0.00893008   3.89192e-06  0.0260534    
0.34514      0.00905388   3.91838e-06  0.0262325    
0.34752      0.00917852   3.94483e-06  0.0264115    
0.3499       0.009304     3.97127e-06  0.0265904    
0.35228      0.00943032   3.9977e-06   0.0267694    
0.35466      0.00955747   4.02412e-06  0.0269483    
0.35704      0.00968546   4.05053e-06  0.0271271    
0.35942      0.00981429   4.07692e-06  0.0273059    
0.3618       0.00994396   4.1033e-06   0.0274847    
0.36418      0.0100745    4.12967e-06  0.0276634    
0.36656      0.0102058    4.15603e-06  0.0278421    
0.36894      0.010338     4.18237e-06  0.0280207    
0.37132      0.010471     4.2087e-06   0.0281993    
0.3737       0.0106048    4.23502e-06  0.0283779    
0.37608      0.0107395    4.26133e-06  0.0285564    
0.37846      0.010875     4.28762e-06  0.0287349    
0.38084      0.0110113    4.31391e-06  0.0289133    
0.38322      0.0111485    4.34018e-06  0.0290917    
0.3856       0.0112865    4.36643e-06  0.02927      
0.38798      0.0114254    4.39267e-06  0.0294484    
0.39036      0.011565     4.41891e-06  0.0296266    
0.39274      0.0117055    4.44512e-06  0.0298048    
0.39512      0.0118469    4.47133e-06  0.029983     
0.3975       0.011989     4.49752e-06  0.0301611    
0.39988      0.012132     4.5237e-06   0.0303392    
0.40226      0.0122759    4.54986e-06  0.0305173    
0.40464      0.0124205    4.57601e-06  0.0306953    
0.40702      0.012566     4.60215e-06  0.0308732    
0.4094       0.0127123    4.62827e-06  0.0310511    
0.41178      0.0128595    4.65438e-06  0.031229     
0.41416      0.0130074    4.68048e-06  0.0314068    
0.41654      0.0131562    4.70656e-06  0.0315845    
0.41892      0.0133058    4.73263e-06  0.0317623    
0.4213       0.0134563    4.75868e-06  0.0319399    
0.42368      0.0136076    4.78472e-06  0.0321176    
0.42606      0.0137597    4.81075e-06  0.0322951    
0.42844      0.0139126    4.83676e-06  0.0324727    
0.43082      0.0140663    4.86276e-06  0.0326501    
0.4332       0.0142209    4.88874e-06  0.0328276    
0.43558      0.0143763    4.91471e-06  0.033005     
0.43796      0.0145325    4.94067e-06  0.0331823    
0.44034      0.0146896    4.96661e-06  0.0333596    
0.44272      0.0148474    4.99253e-06  0.0335368    
0.4451       0.0150061    5.01844e-06  0.033714     
0.44748      0.0151656    5.04434e-06  0.0338912    
0.44986      0.0153259    5.07022e-06  0.0340682    
0.45224      0.0154871    5.09608e-06  0.0342453    
0.45462      0.0156491    5.12194e-06  0.0344223    
0.457        0.0158118    5.14777e-06  0.0345992    
0.45938      0.0159754    5.17359e-06  0.0347761    
0.46176      0.0161399    5.1994e-06   0.0349529    
0.46414      0.0163051    5.22519e-06  0.0351297    
0.46652      0.0164712    5.25096e-06  0.0353065    
0.4689       0.016638     5.27672e-06  0.0354831    
0.47128      0.0168057    5.30246e-06  0.0356598    
0.47366      0.0169742    5.32819e-06  0.0358363    
0.47604      0.0171436    5.3539e-06   0.0360129    
0.47842      0.0173137    5.37959e-06  0.0361893    
0.4808       0.0174847    5.40527e-06  0.0363657    
0.48318      0.0176564    5.43094e-06  0.0365421    
0.48556      0.017829     5.45659e-06  0.0367184    
0.48794      0.0180024    5.48222e-06  0.0368947    
0.49032      0.0181766    5.50783e-06  0.0370709    
0.4927       0.0183516    5.53343e-06  0.037247     
0.49508      0.0185274    5.55901e-06  0.0374231    
0.49746      0.0187041    5.58458e-06  0.0375991    
0.49984      0.0188815    5.61013e-06  0.0377751    
0.50222      0.0190598    5.63566e-06  0.0379511    
0.5046       0.0192388    5.66118e-06  0.0381269    
0.50698      0.0194187    5.68668e-06  0.0383027    
0.50936      0.0195994    5.71216e-06  0.0384785    
0.51174      0.0197809    5.73763e-06  0.0386542    
0.51412      0.0199632    5.76308e-06  0.0388298    
0.5165       0.0201463    5.78851e-06  0.0390054    
0.51888      0.0203302    5.81392e-06  0.0391809    
0.52126      0.0205149    5.83932e-06  0.0393564    
0.52364      0.0207004    5.8647e-06   0.0395318    
0.52602      0.0208868    5.89006e-06  0.0397072    
0.5284       0.0210739    5.91541e-06  0.0398825    
0.53078      0.0212618    5.94074e-06  0.0400577    
0.53316      0.0214506    5.96605e-06  0.0402329    
0.53554      0.0216401    5.99134e-06  0.040408     
0.53792      0.0218304    6.01661e-06  0.0405831    
0.5403       0.0220216    6.04187e-06  0.0407581    
0.54268      0.0222135    6.06711e-06  0.040933     
0.54506      0.0224063    6.09233e-06  0.0411079    
0.54744      0.0225998    6.11754e-06  0.0412827    
0.54982      0.0227941    6.14272e-06  0.0414575    
0.5522       0.0229893    6.16789e-06  0.0416322    
0.55458      0.0231852    6.19304e-06  0.0418068    
0.55696      0.0233819    6.21817e-06  0.0419814    
0.55934      0.0235795    6.24328e-06  0.0421559    
0.56172      0.0237778    6.26837e-06  0.0423303    
0.5641       0.0239769    6.29345e-06  0.0425047    
0.56648      0.0241768    6.3185e-06   0.042679     
0.56886      0.0243775    6.34354e-06  0.0428533    
0.57124      0.024579     6.36856e-06  0.0430275    
0.57362      0.0247813    6.39356e-06  0.0432016    
0.576        0.0249844    6.41854e-06  0.0433757    
0.57838      0.0251883    6.4435e-06   0.0435497    
0.58076      0.025393     6.46844e-06  0.0437237    
0.58314      0.0255984    6.49337e-06  0.0438975    
0.58552      0.0258047    6.51827e-06  0.0440714    
0.5879       0.0260117    6.54316e-06  0.0442451    
0.59028      0.0262195    6.56802e-06  0.0444188    
0.59266      0.0264281    6.59287e-06  0.0445924    
0.59504      0.0266375    6.6177e-06   0.044766     
0.59742      0.0268477    6.6425e-06   0.0449395    
0.5998       0.0270587    6.66729e-06  0.0451129    
0.60218      0.0272705    6.69206e-06  0.0452862    
0.60456      0.027483     6.71681e-06  0.0454595    
0.60694      0.0276963    6.74154e-06  0.0456327    
0.60932      0.0279105    6.76624e-06  0.0458059    
0.6117       0.0281253    6.79093e-06  0.045979     
0.61408      0.028341     6.8156e-06   0.046152     
0.61646      0.0285575    6.84025e-06  0.046325     
0.61884      0.0287747    6.86487e-06  0.0464978    
0.62122      0.0289927    6.88948e-06  0.0466707    
0.6236       0.0292115    6.91407e-06  0.0468434    
0.62598      0.0294311    6.93863e-06  0.0470161    
0.62836      0.0296515    6.96318e-06  0.0471887    
0.63074      0.0298726    6.98771e-06  0.0473612    
0.63312      0.0300945    7.01221e-06  0.0475337    
0.6355       0.0303172    7.03669e-06  0.0477061    
0.63788      0.0305407    7.06116e-06  0.0478784    
0.64026      0.0307649    7.0856e-06   0.0480507    
0.64264      0.03099      7.11002e-06  0.0482229    
0.64502      0.0312157    7.13442e-06  0.048395     
0.6474       0.0314423    7.1588e-06   0.048567     
0.64978      0.0316696    7.18315e-06  0.048739     
0.65216      0.0318977    7.20749e-06  0.0489109    
0.65454      0.0321266    7.2318e-06   0.0490827    
0.65692      0.0323563    7.2561e-06   0.0492545    
0.6593       0.0325867    7.28037e-06  0.0494262    
0.66168      0.0328179    7.30462e-06  0.0495978    
0.66406      0.0330498    7.32885e-06  0.0497693    
0.66644      0.0332826    7.35306e-06  0.0499408    
0.66882      0.033516     7.37724e-06  0.0501122    
0.6712       0.0337503    7.4014e-06   0.0502835    
0.67358      0.0339853    7.42554e-06  0.0504548    
0.67596      0.0342211    7.44966e-06  0.0506259    
0.67834      0.0344577    7.47376e-06  0.050797     
0.68072      0.034695     7.49784e-06  0.0509681    
0.6831       0.0349331    7.52189e-06  0.051139     
0.68548      0.0351719    7.54592e-06  0.0513099    
0.68786      0.0354115    7.56993e-06  0.0514807    
0.69024      0.0356519    7.59391e-06  0.0516514    
0.69262      0.035893     7.61788e-06  0.0518221    
0.695        0.0361349    7.64182e-06  0.0519926    
0.69738      0.0363775    7.66573e-06  0.0521631    
0.69976      0.0366209    7.68963e-06  0.0523335    
0.70214      0.0368651    7.7135e-06   0.0525039    
0.70452      0.03711      7.73735e-06  0.0526741    
0.7069       0.0373557    7.76118e-06  0.0528443    
0.70928      0.0376021    7.78498e-06  0.0530144    
0.71166      0.0378493    7.80876e-06  0.0531845    
0.71404      0.0380972    7.83252e-06  0.0533544    
0.71642      0.0383459    7.85625e-06  0.0535243    
0.7188       0.0385953    7.87996e-06  0.0536941    
0.72118      0.0388455    7.90365e-06  0.0538638    
0.72356      0.0390964    7.92731e-06  0.0540334    
0.72594      0.0393481    7.95095e-06  0.054203     
0.72832      0.0396006    7.97457e-06  0.0543725    
0.7307       0.0398537    7.99816e-06  0.0545419    
0.73308      0.0401077    8.02173e-06  0.0547112    
0.73546      0.0403623    8.04528e-06  0.0548804    
0.73784      0.0406178    8.0688e-06   0.0550496    
0.74022      0.0408739    8.0923e-06   0.0552186    
0.7426       0.0411309    8.11577e-06  0.0553876    
0.74498      0.0413885    8.13922e-06  0.0555565    
0.74736      0.0416469    8.16265e-06  0.0557254    
0.74974      0.0419061    8.18605e-06  0.0558941    
0.75212      0.0421659    8.20942e-06  0.0560628    
0.7545       0.0424266    8.23278e-06  0.0562314    
0.75688      0.0426879    8.2561e-06   0.0563999    
0.75926      0.04295      8.27941e-06  0.0565683    
0.76164      0.0432129    8.30269e-06  0.0567366    
0.76402      0.0434765    8.32594e-06  0.0569049    
0.7664       0.0437408    8.34917e-06  0.0570731    
0.76878      0.0440058    8.37238e-06  0.0572411    
0.77116      0.0442716    8.39556e-06  0.0574091    
0.77354      0.0445382    8.41871e-06  0.0575771    
0.77592      0.0448054    8.44184e-06  0.0577449    
0.7783       0.0450734    8.46495e-06  0.0579126    
0.78068      0.0453421    8.48803e-06  0.0580803    
0.78306      0.0456116    8.51108e-06  0.0582479    
0.78544      0.0458818    8.53411e-06  0.0584154    
0.78782      0.0461527    8.55712e-06  0.0585828    
0.7902       0.0464243    8.58009e-06  0.0587501    
0.79258      0.0466967    8.60305e-06  0.0589173    
0.79496      0.0469698    8.62598e-06  0.0590845    
0.79734      0.0472436    8.64888e-06  0.0592515    
0.79972      0.0475182    8.67175e-06  0.0594185    
0.8021       0.0477934    8.6946e-06   0.0595854    
0.80448      0.0480694    8.71743e-06  0.0597522    
0.80686      0.0483462    8.74023e-06  0.0599189    
0.80924      0.0486236    8.763e-06    0.0600855    
0.81162      0.0489018    8.78575e-06  0.0602521    
0.814        0.0491807    8.80847e-06  0.0604185    
0.81638      0.0494603    8.83116e-06  0.0605849    
0.81876      0.0497406    8.85383e-06  0.0607511    
0.82114      0.0500216    8.87647e-06  0.0609173    
0.82352      0.0503034    8.89909e-06  0.0610834    
0.8259       0.0505859    8.92168e-06  0.0612494    
0.82828      0.0508691    8.94424e-06  0.0614153    
0.83066      0.051153     8.96678e-06  0.0615811    
0.83304      0.0514376    8.98929e-06  0.0617469    
0.83542      0.0517229    9.01177e-06  0.0619125    
0.8378       0.052009     9.03423e-06  0.0620781    
0.84018      0.0522958    9.05666e-06  0.0622435    
0.84256      0.0525832    9.07906e-06  0.0624089    
0.84494      0.0528714    9.10143e-06  0.0625742    
0.84732      0.0531603    9.12378e-06  0.0627393    
0.8497       0.0534499    9.1461e-06   0.0629044    
0.85208      0.0537402    9.1684e-06   0.0630694    
0.85446      0.0540312    9.19067e-06  0.0632343    
0.85684      0.0543229    9.21291e-06  0.0633991    
0.85922      0.0546153    9.23512e-06  0.0635639    
0.8616       0.0549085    9.2573e-06   0.0637285    
0.86398      0.0552023    9.27946e-06  0.063893     
0.86636      0.0554968    9.30159e-06  0.0640575    
0.86874      0.0557921    9.32369e-06  0.0642218    
0.87112      0.056088     9.34576e-06  0.0643861    
0.8735       0.0563846    9.36781e-06  0.0645502    
0.87588      0.0566819    9.38983e-06  0.0647143    
0.87826      0.05698      9.41182e-06  0.0648782    
0.88064      0.0572787    9.43378e-06  0.0650421    
0.88302      0.0575781    9.45572e-06  0.0652059    
0.8854       0.0578782    9.47762e-06  0.0653696    
0.88778      0.058179     9.4995e-06   0.0655332    
0.89016      0.0584805    9.52135e-06  0.0656967    
0.89254      0.0587827    9.54317e-06  0.06586      
0.89492      0.0590856    9.56497e-06  0.0660233    
0.8973       0.0593892    9.58673e-06  0.0661865    
0.89968      0.0596934    9.60847e-06  0.0663496    
0.90206      0.0599984    9.63018e-06  0.0665127    
0.90444      0.060304     9.65186e-06  0.0666756    
0.90682      0.0606104    9.67351e-06  0.0668384    
0.9092       0.0609174    9.69513e-06  0.0670011    
0.91158      0.0612251    9.71672e-06  0.0671637    
0.91396      0.0615335    9.73829e-06  0.0673262    
0.91634      0.0618425    9.75982e-06  0.0674886    
0.91872      0.0621523    9.78133e-06  0.0676509    
0.9211       0.0624627    9.8028e-06   0.0678132    
0.92348      0.0627738    9.82425e-06  0.0679753    
0.92586      0.0630856    9.84567e-06  0.0681373    
0.92824      0.0633981    9.86706e-06  0.0682992    
0.93062      0.0637112    9.88842e-06  0.068461     
0.933        0.064025     9.90975e-06  0.0686228    
0.93538      0.0643395    9.93105e-06  0.0687844    
0.93776      0.0646547    9.95232e-06  0.0689459    
0.94014      0.0649706    9.97356e-06  0.0691073    
0.94252      0.0652871    9.99477e-06  0.0692686    
0.9449       0.0656043    1.0016e-05   0.0694299    
0.94728      0.0659221    1.00371e-05  0.069591     
0.94966      0.0662407    1.00582e-05  0.069752     
0.95204      0.0665599    1.00793e-05  0.0699129    
0.95442      0.0668797    1.01004e-05  0.0700737    
0.9568       0.0672003    1.01214e-05  0.0702344    
0.95918      0.0675215    1.01424e-05  0.070395     
0.96156      0.0678433    1.01634e-05  0.0705555    
0.96394      0.0681659    1.01843e-05  0.0707159    
0.96632      0.0684891    1.02052e-05  0.0708762    
0.9687       0.0688129    1.02261e-05  0.0710364    
0.97108      0.0691375    1.0247e-05   0.0711965    
0.97346      0.0694626    1.02678e-05  0.0713564    
0.97584      0.0697885    1.02886e-05  0.0715163    
0.97822      0.070115     1.03093e-05  0.0716761    
0.9806       0.0704421    1.03301e-05  0.0718357    
0.98298      0.0707699    1.03508e-05  0.0719953    
