# Mass = 0.0479598 Mev*(hbarc)^2/2 
# R = 7.46549 fm 
# a = 0.662 fm 
# V0 = 59.5746 MeV 
# RSO = 6.86114 fm 
# aSO = 0.662 fm 
# VSO = 27.9312 MeV fm^2
# n = 1 
# l = 2 
# two_j = 3 
# two_t = 1 
# Energy = -28.2222 MeV
# r          u            Phi          u/r          
0.1          5.80646e-05  7.13641e-07  0.000580646  
0.10238      6.23096e-05  7.47926e-07  0.000608611  
0.10476      6.67561e-05  7.83013e-07  0.000637229  
0.10714      7.14088e-05  8.18902e-07  0.0006665    
0.10952      7.62723e-05  8.55591e-07  0.000696423  
0.1119       8.13512e-05  8.9308e-07   0.000726999  
0.11428      8.66503e-05  9.31369e-07  0.000758228  
0.11666      9.21741e-05  9.70457e-07  0.000790109  
0.11904      9.79274e-05  1.01034e-06  0.000822643  
0.12142      0.000103915  1.05103e-06  0.000855828  
0.1238       0.000110141  1.09251e-06  0.000889665  
0.12618      0.00011661   1.13479e-06  0.000924154  
0.12856      0.000123327  1.17786e-06  0.000959295  
0.13094      0.000130297  1.22173e-06  0.000995087  
0.13332      0.000137524  1.2664e-06   0.00103153   
0.1357       0.000145012  1.31186e-06  0.00106862   
0.13808      0.000152767  1.35812e-06  0.00110637   
0.14046      0.000160793  1.40516e-06  0.00114476   
0.14284      0.000169095  1.453e-06    0.00118381   
0.14522      0.000177677  1.50164e-06  0.0012235    
0.1476       0.000186544  1.55106e-06  0.00126385   
0.14998      0.0001957    1.60128e-06  0.00130484   
0.15236      0.00020515   1.65228e-06  0.00134648   
0.15474      0.000214899  1.70408e-06  0.00138877   
0.15712      0.000224951  1.75667e-06  0.00143171   
0.1595       0.000235311  1.81004e-06  0.0014753    
0.16188      0.000245983  1.8642e-06   0.00151954   
0.16426      0.000256972  1.91915e-06  0.00156442   
0.16664      0.000268283  1.97488e-06  0.00160995   
0.16902      0.000279919  2.0314e-06   0.00165613   
0.1714       0.000291887  2.08871e-06  0.00170296   
0.17378      0.000304189  2.1468e-06   0.00175043   
0.17616      0.000316831  2.20567e-06  0.00179854   
0.17854      0.000329818  2.26533e-06  0.0018473    
0.18092      0.000343153  2.32577e-06  0.00189671   
0.1833       0.000356842  2.38699e-06  0.00194676   
0.18568      0.000370888  2.44899e-06  0.00199746   
0.18806      0.000385297  2.51177e-06  0.0020488    
0.19044      0.000400074  2.57533e-06  0.00210079   
0.19282      0.000415221  2.63967e-06  0.00215341   
0.1952       0.000430745  2.70478e-06  0.00220668   
0.19758      0.000446649  2.77068e-06  0.0022606    
0.19996      0.000462938  2.83735e-06  0.00231515   
0.20234      0.000479617  2.90479e-06  0.00237035   
0.20472      0.00049669   2.97301e-06  0.00242619   
0.2071       0.000514161  3.042e-06    0.00248267   
0.20948      0.000532035  3.11176e-06  0.00253979   
0.21186      0.000550317  3.1823e-06   0.00259755   
0.21424      0.000569011  3.25361e-06  0.00265595   
0.21662      0.000588122  3.32568e-06  0.00271499   
0.219        0.000607653  3.39853e-06  0.00277467   
0.22138      0.00062761   3.47215e-06  0.00283499   
0.22376      0.000647997  3.54653e-06  0.00289594   
0.22614      0.000668818  3.62168e-06  0.00295754   
0.22852      0.000690077  3.69759e-06  0.00301977   
0.2309       0.000711781  3.77427e-06  0.00308264   
0.23328      0.000733931  3.85171e-06  0.00314614   
0.23566      0.000756534  3.92992e-06  0.00321028   
0.23804      0.000779594  4.00889e-06  0.00327505   
0.24042      0.000803114  4.08861e-06  0.00334046   
0.2428       0.0008271    4.1691e-06   0.00340651   
0.24518      0.000851555  4.25035e-06  0.00347318   
0.24756      0.000876485  4.33235e-06  0.00354049   
0.24994      0.000901893  4.41511e-06  0.00360844   
0.25232      0.000927785  4.49863e-06  0.00367702   
0.2547       0.000954163  4.5829e-06   0.00374622   
0.25708      0.000981034  4.66793e-06  0.00381606   
0.25946      0.0010084    4.75371e-06  0.00388653   
0.26184      0.00103627   4.84024e-06  0.00395764   
0.26422      0.00106464   4.92752e-06  0.00402937   
0.2666       0.00109352   5.01555e-06  0.00410173   
0.26898      0.00112292   5.10433e-06  0.00417472   
0.27136      0.00115283   5.19386e-06  0.00424833   
0.27374      0.00118326   5.28413e-06  0.00432258   
0.27612      0.00121422   5.37515e-06  0.00439745   
0.2785       0.00124572   5.46692e-06  0.00447295   
0.28088      0.00127774   5.55942e-06  0.00454908   
0.28326      0.00131031   5.65267e-06  0.00462583   
0.28564      0.00134342   5.74666e-06  0.0047032    
0.28802      0.00137708   5.84139e-06  0.0047812    
0.2904       0.00141129   5.93685e-06  0.00485983   
0.29278      0.00144606   6.03306e-06  0.00493908   
0.29516      0.00148139   6.13e-06     0.00501895   
0.29754      0.00151729   6.22767e-06  0.00509944   
0.29992      0.00155375   6.32608e-06  0.00518055   
0.3023       0.00159079   6.42522e-06  0.00526229   
0.30468      0.00162841   6.52509e-06  0.00534464   
0.30706      0.0016666    6.6257e-06   0.00542762   
0.30944      0.00170539   6.72703e-06  0.00551121   
0.31182      0.00174477   6.82909e-06  0.00559543   
0.3142       0.00178474   6.93187e-06  0.00568026   
0.31658      0.00182531   7.03538e-06  0.00576571   
0.31896      0.00186648   7.13962e-06  0.00585177   
0.32134      0.00190826   7.24457e-06  0.00593845   
0.32372      0.00195065   7.35025e-06  0.00602575   
0.3261       0.00199366   7.45665e-06  0.00611366   
0.32848      0.00203729   7.56377e-06  0.00620218   
0.33086      0.00208155   7.6716e-06   0.00629132   
0.33324      0.00212643   7.78015e-06  0.00638107   
0.33562      0.00217194   7.88942e-06  0.00647144   
0.338        0.0022181    7.99939e-06  0.00656241   
0.34038      0.00226489   8.11008e-06  0.006654     
0.34276      0.00231233   8.22149e-06  0.0067462    
0.34514      0.00236041   8.3336e-06   0.006839     
0.34752      0.00240915   8.44641e-06  0.00693242   
0.3499       0.00245855   8.55994e-06  0.00702644   
0.35228      0.00250861   8.67417e-06  0.00712107   
0.35466      0.00255934   8.7891e-06   0.00721631   
0.35704      0.00261073   8.90474e-06  0.00731215   
0.35942      0.0026628    9.02107e-06  0.0074086    
0.3618       0.00271555   9.13811e-06  0.00750565   
0.36418      0.00276897   9.25585e-06  0.00760331   
0.36656      0.00282309   9.37428e-06  0.00770157   
0.36894      0.00287789   9.4934e-06   0.00780044   
0.37132      0.00293339   9.61322e-06  0.0078999    
0.3737       0.00298959   9.73373e-06  0.00799997   
0.37608      0.00304649   9.85494e-06  0.00810064   
0.37846      0.00310409   9.97683e-06  0.0082019    
0.38084      0.00316241   1.00994e-05  0.00830377   
0.38322      0.00322144   1.02227e-05  0.00840623   
0.3856       0.00328118   1.03466e-05  0.00850929   
0.38798      0.00334165   1.04713e-05  0.00861295   
0.39036      0.00340285   1.05966e-05  0.0087172    
0.39274      0.00346477   1.07226e-05  0.00882205   
0.39512      0.00352743   1.08492e-05  0.00892749   
0.3975       0.00359083   1.09766e-05  0.00903353   
0.39988      0.00365497   1.11046e-05  0.00914016   
0.40226      0.00371985   1.12333e-05  0.00924738   
0.40464      0.00378549   1.13627e-05  0.00935519   
0.40702      0.00385187   1.14927e-05  0.0094636    
0.4094       0.00391902   1.16235e-05  0.00957259   
0.41178      0.00398692   1.17548e-05  0.00968217   
0.41416      0.0040556    1.18869e-05  0.00979234   
0.41654      0.00412504   1.20196e-05  0.0099031    
0.41892      0.00419525   1.2153e-05   0.0100144    
0.4213       0.00426624   1.2287e-05   0.0101264    
0.42368      0.00433801   1.24217e-05  0.0102389    
0.42606      0.00441057   1.2557e-05   0.010352     
0.42844      0.00448391   1.26931e-05  0.0104657    
0.43082      0.00455805   1.28297e-05  0.0105799    
0.4332       0.00463298   1.2967e-05   0.0106948    
0.43558      0.00470871   1.3105e-05   0.0108102    
0.43796      0.00478524   1.32436e-05  0.0109262    
0.44034      0.00486258   1.33829e-05  0.0110428    
0.44272      0.00494074   1.35228e-05  0.01116      
0.4451       0.0050197    1.36633e-05  0.0112777    
0.44748      0.00509949   1.38045e-05  0.011396     
0.44986      0.00518009   1.39464e-05  0.0115149    
0.45224      0.00526153   1.40888e-05  0.0116344    
0.45462      0.00534379   1.42319e-05  0.0117544    
0.457        0.00542689   1.43757e-05  0.011875     
0.45938      0.00551082   1.45201e-05  0.0119962    
0.46176      0.00559559   1.46651e-05  0.012118     
0.46414      0.00568121   1.48107e-05  0.0122403    
0.46652      0.00576768   1.4957e-05   0.0123632    
0.4689       0.00585499   1.51039e-05  0.0124867    
0.47128      0.00594317   1.52514e-05  0.0126107    
0.47366      0.0060322    1.53996e-05  0.0127353    
0.47604      0.00612209   1.55483e-05  0.0128605    
0.47842      0.00621285   1.56977e-05  0.0129862    
0.4808       0.00630448   1.58477e-05  0.0131125    
0.48318      0.00639698   1.59983e-05  0.0132393    
0.48556      0.00649036   1.61496e-05  0.0133668    
0.48794      0.00658462   1.63014e-05  0.0134947    
0.49032      0.00667977   1.64538e-05  0.0136233    
0.4927       0.0067758    1.66069e-05  0.0137524    
0.49508      0.00687272   1.67606e-05  0.013882     
0.49746      0.00697053   1.69148e-05  0.0140123    
0.49984      0.00706925   1.70697e-05  0.014143     
0.50222      0.00716886   1.72252e-05  0.0142744    
0.5046       0.00726939   1.73813e-05  0.0144062    
0.50698      0.00737081   1.75379e-05  0.0145387    
0.50936      0.00747316   1.76952e-05  0.0146717    
0.51174      0.00757641   1.7853e-05   0.0148052    
0.51412      0.00768059   1.80115e-05  0.0149393    
0.5165       0.00778568   1.81705e-05  0.0150739    
0.51888      0.00789171   1.83301e-05  0.0152091    
0.52126      0.00799866   1.84903e-05  0.0153449    
0.52364      0.00810654   1.86511e-05  0.0154811    
0.52602      0.00821536   1.88125e-05  0.015618     
0.5284       0.00832512   1.89744e-05  0.0157553    
0.53078      0.00843582   1.9137e-05   0.0158933    
0.53316      0.00854747   1.93001e-05  0.0160317    
0.53554      0.00866007   1.94637e-05  0.0161707    
0.53792      0.00877362   1.9628e-05   0.0163103    
0.5403       0.00888812   1.97928e-05  0.0164503    
0.54268      0.00900359   1.99582e-05  0.016591     
0.54506      0.00912001   2.01241e-05  0.0167321    
0.54744      0.0092374    2.02906e-05  0.0168738    
0.54982      0.00935576   2.04577e-05  0.0170161    
0.5522       0.0094751    2.06253e-05  0.0171588    
0.55458      0.00959541   2.07935e-05  0.0173021    
0.55696      0.00971669   2.09622e-05  0.0174459    
0.55934      0.00983896   2.11315e-05  0.0175903    
0.56172      0.00996222   2.13013e-05  0.0177352    
0.5641       0.0100865    2.14717e-05  0.0178806    
0.56648      0.0102117    2.16426e-05  0.0180266    
0.56886      0.0103379    2.18141e-05  0.018173     
0.57124      0.0104651    2.19861e-05  0.0183201    
0.57362      0.0105934    2.21587e-05  0.0184676    
0.576        0.0107226    2.23318e-05  0.0186156    
0.57838      0.0108528    2.25054e-05  0.0187642    
0.58076      0.0109841    2.26796e-05  0.0189133    
0.58314      0.0111164    2.28542e-05  0.0190629    
0.58552      0.0112496    2.30295e-05  0.0192131    
0.5879       0.0113839    2.32052e-05  0.0193637    
0.59028      0.0115192    2.33815e-05  0.0195149    
0.59266      0.0116556    2.35583e-05  0.0196666    
0.59504      0.011793     2.37356e-05  0.0198188    
0.59742      0.0119314    2.39134e-05  0.0199715    
0.5998       0.0120708    2.40917e-05  0.0201247    
0.60218      0.0122113    2.42706e-05  0.0202785    
0.60456      0.0123528    2.445e-05    0.0204327    
0.60694      0.0124954    2.46298e-05  0.0205875    
0.60932      0.012639     2.48102e-05  0.0207428    
0.6117       0.0127836    2.49911e-05  0.0208985    
0.61408      0.0129293    2.51725e-05  0.0210548    
0.61646      0.0130761    2.53544e-05  0.0212116    
0.61884      0.0132239    2.55368e-05  0.0213689    
0.62122      0.0133728    2.57196e-05  0.0215267    
0.6236       0.0135228    2.5903e-05   0.021685     
0.62598      0.0136738    2.60869e-05  0.0218438    
0.62836      0.0138259    2.62712e-05  0.0220031    
0.63074      0.013979     2.64561e-05  0.0221629    
0.63312      0.0141332    2.66414e-05  0.0223232    
0.6355       0.0142886    2.68272e-05  0.022484     
0.63788      0.0144449    2.70135e-05  0.0226452    
0.64026      0.0146024    2.72002e-05  0.022807     
0.64264      0.014761     2.73874e-05  0.0229693    
0.64502      0.0149206    2.75751e-05  0.023132     
0.6474       0.0150814    2.77633e-05  0.0232953    
0.64978      0.0152432    2.79519e-05  0.023459     
0.65216      0.0154061    2.8141e-05   0.0236232    
0.65454      0.0155702    2.83306e-05  0.023788     
0.65692      0.0157353    2.85206e-05  0.0239531    
0.6593       0.0159015    2.87111e-05  0.0241188    
0.66168      0.0160689    2.89021e-05  0.024285     
0.66406      0.0162373    2.90935e-05  0.0244516    
0.66644      0.0164069    2.92853e-05  0.0246188    
0.66882      0.0165776    2.94776e-05  0.0247864    
0.6712       0.0167494    2.96703e-05  0.0249544    
0.67358      0.0169223    2.98635e-05  0.025123     
0.67596      0.0170964    3.00571e-05  0.025292     
0.67834      0.0172716    3.02512e-05  0.0254615    
0.68072      0.0174479    3.04457e-05  0.0256315    
0.6831       0.0176253    3.06406e-05  0.0258019    
0.68548      0.0178039    3.0836e-05   0.0259729    
0.68786      0.0179836    3.10317e-05  0.0261443    
0.69024      0.0181644    3.12279e-05  0.0263161    
0.69262      0.0183464    3.14246e-05  0.0264884    
0.695        0.0185295    3.16216e-05  0.0266612    
0.69738      0.0187138    3.18191e-05  0.0268345    
0.69976      0.0188992    3.2017e-05   0.0270082    
0.70214      0.0190858    3.22153e-05  0.0271824    
0.70452      0.0192736    3.2414e-05   0.027357     
0.7069       0.0194624    3.26132e-05  0.0275321    
0.70928      0.0196525    3.28127e-05  0.0277076    
0.71166      0.0198437    3.30126e-05  0.0278836    
0.71404      0.020036     3.3213e-05   0.0280601    
0.71642      0.0202296    3.34137e-05  0.028237     
0.7188       0.0204243    3.36148e-05  0.0284144    
0.72118      0.0206201    3.38164e-05  0.0285922    
0.72356      0.0208172    3.40183e-05  0.0287705    
0.72594      0.0210154    3.42206e-05  0.0289492    
0.72832      0.0212148    3.44233e-05  0.0291284    
0.7307       0.0214153    3.46263e-05  0.029308     
0.73308      0.0216171    3.48298e-05  0.029488     
0.73546      0.02182      3.50336e-05  0.0296685    
0.73784      0.0220241    3.52378e-05  0.0298495    
0.74022      0.0222294    3.54424e-05  0.0300309    
0.7426       0.0224359    3.56474e-05  0.0302127    
0.74498      0.0226436    3.58527e-05  0.0303949    
0.74736      0.0228525    3.60584e-05  0.0305776    
0.74974      0.0230626    3.62644e-05  0.0307608    
0.75212      0.0232738    3.64708e-05  0.0309443    
0.7545       0.0234863    3.66776e-05  0.0311283    
0.75688      0.0237       3.68847e-05  0.0313128    
0.75926      0.0239149    3.70922e-05  0.0314976    
0.76164      0.024131     3.73e-05     0.0316829    
0.76402      0.0243483    3.75081e-05  0.0318686    
0.7664       0.0245668    3.77167e-05  0.0320548    
0.76878      0.0247865    3.79255e-05  0.0322413    
0.77116      0.0250074    3.81347e-05  0.0324283    
0.77354      0.0252296    3.83442e-05  0.0326157    
0.77592      0.0254529    3.85541e-05  0.0328035    
0.7783       0.0256775    3.87643e-05  0.0329918    
0.78068      0.0259033    3.89748e-05  0.0331805    
0.78306      0.0261303    3.91856e-05  0.0333695    
0.78544      0.0263586    3.93968e-05  0.033559     
0.78782      0.0265881    3.96083e-05  0.0337489    
0.7902       0.0268188    3.98201e-05  0.0339393    
0.79258      0.0270508    4.00322e-05  0.03413      
0.79496      0.0272839    4.02447e-05  0.0343211    
0.79734      0.0275183    4.04574e-05  0.0345127    
0.79972      0.027754     4.06705e-05  0.0347046    
0.8021       0.0279909    4.08838e-05  0.034897     
0.80448      0.028229     4.10975e-05  0.0350898    
0.80686      0.0284684    4.13114e-05  0.0352829    
0.80924      0.028709     4.15257e-05  0.0354765    
0.81162      0.0289509    4.17402e-05  0.0356705    
0.814        0.029194     4.1955e-05   0.0358648    
0.81638      0.0294383    4.21702e-05  0.0360596    
0.81876      0.0296839    4.23856e-05  0.0362548    
0.82114      0.0299308    4.26012e-05  0.0364503    
0.82352      0.0301789    4.28172e-05  0.0366462    
0.8259       0.0304283    4.30334e-05  0.0368426    
0.82828      0.0306789    4.325e-05    0.0370393    
0.83066      0.0309308    4.34667e-05  0.0372364    
0.83304      0.0311839    4.36838e-05  0.0374339    
0.83542      0.0314383    4.39011e-05  0.0376318    
0.8378       0.031694     4.41187e-05  0.0378301    
0.84018      0.031951     4.43365e-05  0.0380287    
0.84256      0.0322092    4.45546e-05  0.0382277    
0.84494      0.0324686    4.4773e-05   0.0384271    
0.84732      0.0327294    4.49916e-05  0.0386269    
0.8497       0.0329914    4.52104e-05  0.0388271    
0.85208      0.0332547    4.54295e-05  0.0390276    
0.85446      0.0335192    4.56489e-05  0.0392285    
0.85684      0.033785     4.58685e-05  0.0394298    
0.85922      0.0340521    4.60883e-05  0.0396315    
0.8616       0.0343205    4.63083e-05  0.0398335    
0.86398      0.0345902    4.65286e-05  0.0400359    
0.86636      0.0348611    4.67491e-05  0.0402386    
0.86874      0.0351334    4.69699e-05  0.0404417    
0.87112      0.0354069    4.71908e-05  0.0406452    
0.8735       0.0356817    4.7412e-05   0.0408491    
0.87588      0.0359577    4.76334e-05  0.0410533    
0.87826      0.0362351    4.7855e-05   0.0412578    
0.88064      0.0365137    4.80769e-05  0.0414627    
0.88302      0.0367937    4.82989e-05  0.041668     
0.8854       0.0370749    4.85211e-05  0.0418736    
0.88778      0.0373574    4.87436e-05  0.0420796    
0.89016      0.0376413    4.89662e-05  0.0422859    
0.89254      0.0379264    4.91891e-05  0.0424926    
0.89492      0.0382128    4.94121e-05  0.0426997    
0.8973       0.0385005    4.96353e-05  0.042907     
0.89968      0.0387895    4.98587e-05  0.0431148    
0.90206      0.0390798    5.00823e-05  0.0433228    
0.90444      0.0393714    5.03061e-05  0.0435312    
0.90682      0.0396643    5.05301e-05  0.04374      
0.9092       0.0399585    5.07542e-05  0.043949     
0.91158      0.040254     5.09785e-05  0.0441585    
0.91396      0.0405508    5.1203e-05   0.0443682    
0.91634      0.0408489    5.14277e-05  0.0445783    
0.91872      0.0411483    5.16525e-05  0.0447887    
0.9211       0.041449     5.18775e-05  0.0449995    
0.92348      0.0417511    5.21026e-05  0.0452106    
0.92586      0.0420544    5.23279e-05  0.045422     
0.92824      0.042359     5.25534e-05  0.0456337    
0.93062      0.042665     5.2779e-05   0.0458458    
0.933        0.0429723    5.30047e-05  0.0460582    
0.93538      0.0432809    5.32306e-05  0.0462709    
0.93776      0.0435907    5.34567e-05  0.0464839    
0.94014      0.043902     5.36828e-05  0.0466972    
0.94252      0.0442145    5.39091e-05  0.0469109    
0.9449       0.0445283    5.41356e-05  0.0471249    
0.94728      0.0448435    5.43622e-05  0.0473392    
0.94966      0.0451599    5.45889e-05  0.0475538    
0.95204      0.0454777    5.48157e-05  0.0477687    
0.95442      0.0457968    5.50426e-05  0.0479839    
0.9568       0.0461172    5.52697e-05  0.0481995    
0.95918      0.046439     5.54969e-05  0.0484153    
0.96156      0.046762     5.57242e-05  0.0486314    
0.96394      0.0470864    5.59516e-05  0.0488479    
0.96632      0.0474121    5.61791e-05  0.0490646    
0.9687       0.0477392    5.64067e-05  0.0492817    
0.97108      0.0480675    5.66344e-05  0.049499     
0.97346      0.0483972    5.68622e-05  0.0497167    
0.97584      0.0487282    5.70901e-05  0.0499346    
0.97822      0.0490605    5.73181e-05  0.0501528    
0.9806       0.0493941    5.75462e-05  0.0503714    
0.98298      0.0497291    5.77744e-05  0.0505902    
