# Mass = 0.0480256 Mev*(hbarc)^2/2 
# R = 7.46549 fm 
# a = 0.662 fm 
# V0 = 45.1811 MeV 
# RSO = 6.86114 fm 
# aSO = 0.662 fm 
# VSO = 27.8547 MeV fm^2
# n = 0 
# l = 5 
# two_j = 9 
# two_t = -1 
# Energy = -10.6702 MeV
# r          u            Phi          u/r          
0.1          2.02874e-10  2.69028e-10  2.02874e-09  
0.10238      2.33623e-10  3.02584e-10  2.28192e-09  
0.10476      2.68159e-10  3.39408e-10  2.55974e-09  
0.10714      3.06847e-10  3.79733e-10  2.86398e-09  
0.10952      3.50077e-10  4.23804e-10  3.19646e-09  
0.1119       3.98265e-10  4.71873e-10  3.55912e-09  
0.11428      4.51857e-10  5.24208e-10  3.95395e-09  
0.11666      5.11327e-10  5.81086e-10  4.38306e-09  
0.11904      5.7718e-10   6.42795e-10  4.84862e-09  
0.12142      6.49951e-10  7.09638e-10  5.35291e-09  
0.1238       7.3021e-10   7.81927e-10  5.89831e-09  
0.12618      8.18562e-10  8.59989e-10  6.48726e-09  
0.12856      9.15646e-10  9.44163e-10  7.12233e-09  
0.13094      1.02214e-09  1.0348e-09   7.80617e-09  
0.13332      1.13876e-09  1.13226e-09  8.54153e-09  
0.1357       1.26625e-09  1.23693e-09  9.33128e-09  
0.13808      1.40543e-09  1.3492e-09   1.01784e-08  
0.14046      1.55712e-09  1.46947e-09  1.10859e-08  
0.14284      1.72221e-09  1.59817e-09  1.20569e-08  
0.14522      1.90164e-09  1.73572e-09  1.30949e-08  
0.1476       2.09637e-09  1.88258e-09  1.4203e-08   
0.14998      2.30744e-09  2.03921e-09  1.5385e-08   
0.15236      2.53592e-09  2.20609e-09  1.66443e-08  
0.15474      2.78295e-09  2.38372e-09  1.79847e-08  
0.15712      3.04971e-09  2.5726e-09   1.94101e-08  
0.1595       3.33744e-09  2.77325e-09  2.09244e-08  
0.16188      3.64743e-09  2.98624e-09  2.25317e-08  
0.16426      3.98105e-09  3.2121e-09   2.42363e-08  
0.16664      4.3397e-09   3.45141e-09  2.60424e-08  
0.16902      4.72488e-09  3.70477e-09  2.79546e-08  
0.1714       5.13813e-09  3.97278e-09  2.99774e-08  
0.17378      5.58105e-09  4.25608e-09  3.21156e-08  
0.17616      6.05534e-09  4.55529e-09  3.43741e-08  
0.17854      6.56273e-09  4.87109e-09  3.67577e-08  
0.18092      7.10505e-09  5.20415e-09  3.92718e-08  
0.1833       7.68419e-09  5.55517e-09  4.19214e-08  
0.18568      8.30214e-09  5.92486e-09  4.47121e-08  
0.18806      8.96093e-09  6.31396e-09  4.76493e-08  
0.19044      9.6627e-09   6.72322e-09  5.07388e-08  
0.19282      1.04097e-08  7.15341e-09  5.39865e-08  
0.1952       1.12041e-08  7.60533e-09  5.73982e-08  
0.19758      1.20484e-08  8.07977e-09  6.09801e-08  
0.19996      1.29451e-08  8.57759e-09  6.47385e-08  
0.20234      1.38967e-08  9.09961e-09  6.86798e-08  
0.20472      1.49058e-08  9.64672e-09  7.28106e-08  
0.2071       1.59752e-08  1.02198e-08  7.71377e-08  
0.20948      1.71078e-08  1.08198e-08  8.1668e-08   
0.21186      1.83065e-08  1.14476e-08  8.64084e-08  
0.21424      1.95743e-08  1.21041e-08  9.13663e-08  
0.21662      2.09144e-08  1.27905e-08  9.65489e-08  
0.219        2.23301e-08  1.35075e-08  1.01964e-07  
0.22138      2.38247e-08  1.42563e-08  1.07619e-07  
0.22376      2.54017e-08  1.5038e-08   1.13522e-07  
0.22614      2.70647e-08  1.58535e-08  1.19681e-07  
0.22852      2.88173e-08  1.67039e-08  1.26104e-07  
0.2309       3.06635e-08  1.75905e-08  1.328e-07    
0.23328      3.26071e-08  1.85142e-08  1.39777e-07  
0.23566      3.46523e-08  1.94762e-08  1.47044e-07  
0.23804      3.68031e-08  2.04778e-08  1.54609e-07  
0.24042      3.90641e-08  2.15201e-08  1.62483e-07  
0.2428       4.14395e-08  2.26044e-08  1.70673e-07  
0.24518      4.39339e-08  2.37318e-08  1.79191e-07  
0.24756      4.65522e-08  2.49038e-08  1.88044e-07  
0.24994      4.92991e-08  2.61215e-08  1.97244e-07  
0.25232      5.21797e-08  2.73863e-08  2.068e-07    
0.2547       5.51991e-08  2.86996e-08  2.16722e-07  
0.25708      5.83625e-08  3.00626e-08  2.27021e-07  
0.25946      6.16755e-08  3.14769e-08  2.37707e-07  
0.26184      6.51436e-08  3.29439e-08  2.48792e-07  
0.26422      6.87726e-08  3.44649e-08  2.60285e-07  
0.2666       7.25683e-08  3.60414e-08  2.72199e-07  
0.26898      7.65369e-08  3.76751e-08  2.84545e-07  
0.27136      8.06846e-08  3.93673e-08  2.97334e-07  
0.27374      8.50177e-08  4.11197e-08  3.10578e-07  
0.27612      8.95428e-08  4.29339e-08  3.24289e-07  
0.2785       9.42666e-08  4.48113e-08  3.3848e-07   
0.28088      9.91961e-08  4.67538e-08  3.53162e-07  
0.28326      1.04338e-07  4.87629e-08  3.68349e-07  
0.28564      1.09701e-07  5.08403e-08  3.84052e-07  
0.28802      1.1529e-07   5.29878e-08  4.00286e-07  
0.2904       1.21115e-07  5.52071e-08  4.17064e-07  
0.29278      1.27183e-07  5.75e-08     4.34398e-07  
0.29516      1.33502e-07  5.98682e-08  4.52303e-07  
0.29754      1.4008e-07   6.23137e-08  4.70793e-07  
0.29992      1.46925e-07  6.48383e-08  4.89881e-07  
0.3023       1.54047e-07  6.74438e-08  5.09583e-07  
0.30468      1.61454e-07  7.01322e-08  5.29912e-07  
0.30706      1.69154e-07  7.29055e-08  5.50884e-07  
0.30944      1.77158e-07  7.57656e-08  5.72513e-07  
0.31182      1.85475e-07  7.87146e-08  5.94815e-07  
0.3142       1.94115e-07  8.17544e-08  6.17806e-07  
0.31658      2.03086e-07  8.48872e-08  6.415e-07    
0.31896      2.124e-07    8.8115e-08   6.65915e-07  
0.32134      2.22067e-07  9.14401e-08  6.91066e-07  
0.32372      2.32097e-07  9.48645e-08  7.16969e-07  
0.3261       2.42502e-07  9.83904e-08  7.43642e-07  
0.32848      2.53291e-07  1.0202e-07   7.71101e-07  
0.33086      2.64478e-07  1.05756e-07  7.99364e-07  
0.33324      2.76072e-07  1.096e-07    8.28448e-07  
0.33562      2.88086e-07  1.13555e-07  8.5837e-07   
0.338        3.00532e-07  1.17622e-07  8.89149e-07  
0.34038      3.13423e-07  1.21806e-07  9.20803e-07  
0.34276      3.2677e-07   1.26107e-07  9.53349e-07  
0.34514      3.40587e-07  1.30528e-07  9.86808e-07  
0.34752      3.54886e-07  1.35072e-07  1.0212e-06   
0.3499       3.69682e-07  1.39741e-07  1.05654e-06  
0.35228      3.84987e-07  1.44538e-07  1.09284e-06  
0.35466      4.00816e-07  1.49466e-07  1.13014e-06  
0.35704      4.17182e-07  1.54526e-07  1.16845e-06  
0.35942      4.34101e-07  1.59722e-07  1.20778e-06  
0.3618       4.51587e-07  1.65057e-07  1.24817e-06  
0.36418      4.69654e-07  1.70533e-07  1.28962e-06  
0.36656      4.8832e-07   1.76152e-07  1.33217e-06  
0.36894      5.07598e-07  1.81918e-07  1.37583e-06  
0.37132      5.27505e-07  1.87834e-07  1.42062e-06  
0.3737       5.48057e-07  1.93902e-07  1.46657e-06  
0.37608      5.69271e-07  2.00126e-07  1.5137e-06   
0.37846      5.91164e-07  2.06507e-07  1.56203e-06  
0.38084      6.13753e-07  2.1305e-07   1.61158e-06  
0.38322      6.37055e-07  2.19757e-07  1.66237e-06  
0.3856       6.61088e-07  2.26631e-07  1.71444e-06  
0.38798      6.8587e-07   2.33675e-07  1.7678e-06   
0.39036      7.11421e-07  2.40892e-07  1.82247e-06  
0.39274      7.37758e-07  2.48287e-07  1.87849e-06  
0.39512      7.64901e-07  2.55861e-07  1.93587e-06  
0.3975       7.92869e-07  2.63618e-07  1.99464e-06  
0.39988      8.21683e-07  2.71561e-07  2.05482e-06  
0.40226      8.51362e-07  2.79693e-07  2.11645e-06  
0.40464      8.81928e-07  2.88019e-07  2.17954e-06  
0.40702      9.134e-07    2.96541e-07  2.24412e-06  
0.4094       9.45801e-07  3.05262e-07  2.31021e-06  
0.41178      9.79152e-07  3.14186e-07  2.37785e-06  
0.41416      1.01348e-06  3.23318e-07  2.44706e-06  
0.41654      1.04879e-06  3.32659e-07  2.51787e-06  
0.41892      1.08513e-06  3.42214e-07  2.5903e-06   
0.4213       1.1225e-06   3.51986e-07  2.66438e-06  
0.42368      1.16094e-06  3.61979e-07  2.74014e-06  
0.42606      1.20047e-06  3.72197e-07  2.81761e-06  
0.42844      1.24111e-06  3.82643e-07  2.89682e-06  
0.43082      1.28289e-06  3.93321e-07  2.97779e-06  
0.4332       1.32583e-06  4.04235e-07  3.06055e-06  
0.43558      1.36996e-06  4.15389e-07  3.14514e-06  
0.43796      1.4153e-06   4.26786e-07  3.23158e-06  
0.44034      1.46188e-06  4.38431e-07  3.3199e-06   
0.44272      1.50974e-06  4.50328e-07  3.41014e-06  
0.4451       1.55888e-06  4.6248e-07   3.50232e-06  
0.44748      1.60935e-06  4.74891e-07  3.59647e-06  
0.44986      1.66117e-06  4.87567e-07  3.69263e-06  
0.45224      1.71437e-06  5.0051e-07   3.79083e-06  
0.45462      1.76897e-06  5.13725e-07  3.8911e-06   
0.457        1.82502e-06  5.27216e-07  3.99347e-06  
0.45938      1.88253e-06  5.40987e-07  4.09798e-06  
0.46176      1.94154e-06  5.55044e-07  4.20465e-06  
0.46414      2.00208e-06  5.69389e-07  4.31353e-06  
0.46652      2.06418e-06  5.84027e-07  4.42464e-06  
0.4689       2.12787e-06  5.98964e-07  4.53801e-06  
0.47128      2.19319e-06  6.14203e-07  4.65369e-06  
0.47366      2.26017e-06  6.29748e-07  4.77171e-06  
0.47604      2.32883e-06  6.45605e-07  4.89209e-06  
0.47842      2.39922e-06  6.61778e-07  5.01489e-06  
0.4808       2.47137e-06  6.78271e-07  5.14012e-06  
0.48318      2.54531e-06  6.9509e-07   5.26784e-06  
0.48556      2.62108e-06  7.12238e-07  5.39807e-06  
0.48794      2.69872e-06  7.29721e-07  5.53085e-06  
0.49032      2.77826e-06  7.47544e-07  5.66621e-06  
0.4927       2.85973e-06  7.65711e-07  5.80421e-06  
0.49508      2.94318e-06  7.84227e-07  5.94486e-06  
0.49746      3.02864e-06  8.03098e-07  6.08822e-06  
0.49984      3.11616e-06  8.22327e-07  6.23431e-06  
0.50222      3.20576e-06  8.41921e-07  6.38318e-06  
0.5046       3.2975e-06   8.61884e-07  6.53487e-06  
0.50698      3.3914e-06   8.82221e-07  6.68942e-06  
0.50936      3.48751e-06  9.02938e-07  6.84686e-06  
0.51174      3.58588e-06  9.24039e-07  7.00723e-06  
0.51412      3.68654e-06  9.45531e-07  7.17058e-06  
0.5165       3.78953e-06  9.67417e-07  7.33695e-06  
0.51888      3.89491e-06  9.89705e-07  7.50637e-06  
0.52126      4.0027e-06   1.0124e-06   7.6789e-06   
0.52364      4.11296e-06  1.0355e-06   7.85456e-06  
0.52602      4.22573e-06  1.05902e-06  8.03341e-06  
0.5284       4.34106e-06  1.08297e-06  8.21548e-06  
0.53078      4.45899e-06  1.10734e-06  8.40082e-06  
0.53316      4.57957e-06  1.13214e-06  8.58948e-06  
0.53554      4.70284e-06  1.15739e-06  8.78148e-06  
0.53792      4.82885e-06  1.18308e-06  8.97689e-06  
0.5403       4.95765e-06  1.20922e-06  9.17574e-06  
0.54268      5.0893e-06   1.23582e-06  9.37808e-06  
0.54506      5.22383e-06  1.26287e-06  9.58395e-06  
0.54744      5.3613e-06   1.2904e-06   9.7934e-06   
0.54982      5.50176e-06  1.3184e-06   1.00065e-05  
0.5522       5.64526e-06  1.34688e-06  1.02232e-05  
0.55458      5.79186e-06  1.37585e-06  1.04437e-05  
0.55696      5.9416e-06   1.40531e-06  1.06679e-05  
0.55934      6.09454e-06  1.43527e-06  1.08959e-05  
0.56172      6.25073e-06  1.46573e-06  1.11278e-05  
0.5641       6.41023e-06  1.4967e-06   1.13636e-05  
0.56648      6.5731e-06   1.52819e-06  1.16034e-05  
0.56886      6.73938e-06  1.56021e-06  1.18472e-05  
0.57124      6.90914e-06  1.59275e-06  1.2095e-05   
0.57362      7.08243e-06  1.62583e-06  1.23469e-05  
0.576        7.25931e-06  1.65945e-06  1.2603e-05   
0.57838      7.43985e-06  1.69362e-06  1.28633e-05  
0.58076      7.62409e-06  1.72835e-06  1.31278e-05  
0.58314      7.8121e-06   1.76364e-06  1.33966e-05  
0.58552      8.00395e-06  1.7995e-06   1.36698e-05  
0.5879       8.19968e-06  1.83593e-06  1.39474e-05  
0.59028      8.39937e-06  1.87294e-06  1.42295e-05  
0.59266      8.60308e-06  1.91055e-06  1.4516e-05   
0.59504      8.81087e-06  1.94875e-06  1.48072e-05  
0.59742      9.02281e-06  1.98755e-06  1.5103e-05   
0.5998       9.23895e-06  2.02697e-06  1.54034e-05  
0.60218      9.45938e-06  2.067e-06    1.57086e-05  
0.60456      9.68415e-06  2.10765e-06  1.60185e-05  
0.60694      9.91333e-06  2.14894e-06  1.63333e-05  
0.60932      1.0147e-05   2.19086e-06  1.6653e-05   
0.6117       1.03852e-05  2.23343e-06  1.69776e-05  
0.61408      1.0628e-05   2.27665e-06  1.73072e-05  
0.61646      1.08755e-05  2.32053e-06  1.76419e-05  
0.61884      1.11278e-05  2.36508e-06  1.79817e-05  
0.62122      1.13849e-05  2.4103e-06   1.83267e-05  
0.6236       1.1647e-05   2.4562e-06   1.8677e-05   
0.62598      1.1914e-05   2.5028e-06   1.90325e-05  
0.62836      1.2186e-05   2.55009e-06  1.93934e-05  
0.63074      1.24632e-05  2.59808e-06  1.97596e-05  
0.63312      1.27456e-05  2.64679e-06  2.01314e-05  
0.6355       1.30333e-05  2.69622e-06  2.05087e-05  
0.63788      1.33263e-05  2.74637e-06  2.08915e-05  
0.64026      1.36248e-05  2.79727e-06  2.12801e-05  
0.64264      1.39288e-05  2.8489e-06   2.16743e-05  
0.64502      1.42384e-05  2.90129e-06  2.20743e-05  
0.6474       1.45537e-05  2.95443e-06  2.24802e-05  
0.64978      1.48747e-05  3.00834e-06  2.28919e-05  
0.65216      1.52016e-05  3.06303e-06  2.33096e-05  
0.65454      1.55344e-05  3.1185e-06   2.37333e-05  
0.65692      1.58733e-05  3.17476e-06  2.41631e-05  
0.6593       1.62182e-05  3.23183e-06  2.45991e-05  
0.66168      1.65693e-05  3.2897e-06   2.50413e-05  
0.66406      1.69267e-05  3.34838e-06  2.54898e-05  
0.66644      1.72905e-05  3.4079e-06   2.59446e-05  
0.66882      1.76607e-05  3.46824e-06  2.64058e-05  
0.6712       1.80375e-05  3.52943e-06  2.68735e-05  
0.67358      1.84209e-05  3.59146e-06  2.73477e-05  
0.67596      1.8811e-05   3.65436e-06  2.78286e-05  
0.67834      1.9208e-05   3.71812e-06  2.83161e-05  
0.68072      1.96118e-05  3.78276e-06  2.88104e-05  
0.6831       2.00227e-05  3.84828e-06  2.93115e-05  
0.68548      2.04407e-05  3.9147e-06   2.98195e-05  
0.68786      2.08658e-05  3.98202e-06  3.03344e-05  
0.69024      2.12983e-05  4.05025e-06  3.08564e-05  
0.69262      2.17382e-05  4.1194e-06   3.13854e-05  
0.695        2.21855e-05  4.18948e-06  3.19216e-05  
0.69738      2.26405e-05  4.26049e-06  3.24651e-05  
0.69976      2.31031e-05  4.33246e-06  3.30158e-05  
0.70214      2.35736e-05  4.40538e-06  3.35739e-05  
0.70452      2.4052e-05   4.47927e-06  3.41395e-05  
0.7069       2.45383e-05  4.55413e-06  3.47126e-05  
0.70928      2.50328e-05  4.62997e-06  3.52933e-05  
0.71166      2.55355e-05  4.70681e-06  3.58817e-05  
0.71404      2.60466e-05  4.78466e-06  3.64778e-05  
0.71642      2.65661e-05  4.86351e-06  3.70817e-05  
0.7188       2.70941e-05  4.94339e-06  3.76935e-05  
0.72118      2.76308e-05  5.0243e-06   3.83133e-05  
0.72356      2.81762e-05  5.10624e-06  3.89411e-05  
0.72594      2.87305e-05  5.18924e-06  3.9577e-05   
0.72832      2.92938e-05  5.2733e-06   4.02211e-05  
0.7307       2.98663e-05  5.35844e-06  4.08735e-05  
0.73308      3.04479e-05  5.44465e-06  4.15343e-05  
0.73546      3.10389e-05  5.53195e-06  4.22034e-05  
0.73784      3.16394e-05  5.62035e-06  4.28811e-05  
0.74022      3.22494e-05  5.70986e-06  4.35674e-05  
0.7426       3.28692e-05  5.80049e-06  4.42623e-05  
0.74498      3.34987e-05  5.89225e-06  4.49659e-05  
0.74736      3.41382e-05  5.98515e-06  4.56784e-05  
0.74974      3.47878e-05  6.0792e-06   4.63998e-05  
0.75212      3.54476e-05  6.17442e-06  4.71302e-05  
0.7545       3.61176e-05  6.2708e-06   4.78696e-05  
0.75688      3.67981e-05  6.36837e-06  4.86182e-05  
0.75926      3.74892e-05  6.46712e-06  4.9376e-05   
0.76164      3.8191e-05   6.56708e-06  5.01431e-05  
0.76402      3.89036e-05  6.66825e-06  5.09197e-05  
0.7664       3.96272e-05  6.77065e-06  5.17056e-05  
0.76878      4.03619e-05  6.87428e-06  5.25012e-05  
0.77116      4.11078e-05  6.97915e-06  5.33064e-05  
0.77354      4.1865e-05   7.08528e-06  5.41213e-05  
0.77592      4.26338e-05  7.19268e-06  5.49461e-05  
0.7783       4.34142e-05  7.30135e-06  5.57808e-05  
0.78068      4.42063e-05  7.41131e-06  5.66254e-05  
0.78306      4.50104e-05  7.52257e-06  5.74801e-05  
0.78544      4.58265e-05  7.63514e-06  5.8345e-05   
0.78782      4.66548e-05  7.74903e-06  5.92202e-05  
0.7902       4.74955e-05  7.86426e-06  6.01056e-05  
0.79258      4.83486e-05  7.98082e-06  6.10015e-05  
0.79496      4.92144e-05  8.09875e-06  6.1908e-05   
0.79734      5.00929e-05  8.21803e-06  6.2825e-05   
0.79972      5.09843e-05  8.3387e-06   6.37527e-05  
0.8021       5.18888e-05  8.46075e-06  6.46912e-05  
0.80448      5.28066e-05  8.5842e-06   6.56406e-05  
0.80686      5.37377e-05  8.70907e-06  6.6601e-05   
0.80924      5.46823e-05  8.83536e-06  6.75724e-05  
0.81162      5.56406e-05  8.96308e-06  6.8555e-05   
0.814        5.66128e-05  9.09225e-06  6.95488e-05  
0.81638      5.75989e-05  9.22288e-06  7.0554e-05   
0.81876      5.85991e-05  9.35497e-06  7.15706e-05  
0.82114      5.96137e-05  9.48855e-06  7.25987e-05  
0.82352      6.06428e-05  9.62363e-06  7.36385e-05  
0.8259       6.16864e-05  9.7602e-06   7.46899e-05  
0.82828      6.27449e-05  9.8983e-06   7.57532e-05  
0.83066      6.38183e-05  1.00379e-05  7.68284e-05  
0.83304      6.49068e-05  1.01791e-05  7.79156e-05  
0.83542      6.60106e-05  1.03218e-05  7.90149e-05  
0.8378       6.71299e-05  1.04661e-05  8.01264e-05  
0.84018      6.82648e-05  1.0612e-05   8.12502e-05  
0.84256      6.94154e-05  1.07594e-05  8.23863e-05  
0.84494      7.05821e-05  1.09085e-05  8.3535e-05   
0.84732      7.17649e-05  1.10591e-05  8.46963e-05  
0.8497       7.29639e-05  1.12114e-05  8.58702e-05  
0.85208      7.41795e-05  1.13654e-05  8.7057e-05   
0.85446      7.54118e-05  1.1521e-05   8.82567e-05  
0.85684      7.66609e-05  1.16782e-05  8.94693e-05  
0.85922      7.7927e-05   1.18372e-05  9.0695e-05   
0.8616       7.92103e-05  1.19978e-05  9.1934e-05   
0.86398      8.0511e-05   1.21601e-05  9.31862e-05  
0.86636      8.18293e-05  1.23242e-05  9.44519e-05  
0.86874      8.31654e-05  1.249e-05    9.5731e-05   
0.87112      8.45193e-05  1.26575e-05  9.70238e-05  
0.8735       8.58915e-05  1.28268e-05  9.83302e-05  
0.87588      8.72819e-05  1.29978e-05  9.96505e-05  
0.87826      8.86909e-05  1.31706e-05  0.000100985  
0.88064      9.01186e-05  1.33452e-05  0.000102333  
0.88302      9.15651e-05  1.35217e-05  0.000103695  
0.8854       9.30308e-05  1.36999e-05  0.000105072  
0.88778      9.45157e-05  1.388e-05    0.000106463  
0.89016      9.60202e-05  1.40619e-05  0.000107868  
0.89254      9.75443e-05  1.42457e-05  0.000109288  
0.89492      9.90884e-05  1.44314e-05  0.000110723  
0.8973       0.000100653  1.46189e-05  0.000112173  
0.89968      0.000102237  1.48084e-05  0.000113637  
0.90206      0.000103842  1.49998e-05  0.000115116  
0.90444      0.000105468  1.51931e-05  0.000116611  
0.90682      0.000107114  1.53883e-05  0.000118121  
0.9092       0.000108782  1.55855e-05  0.000119646  
0.91158      0.000110471  1.57847e-05  0.000121186  
0.91396      0.000112181  1.59858e-05  0.000122742  
0.91634      0.000113914  1.6189e-05   0.000124314  
0.91872      0.000115668  1.63942e-05  0.000125901  
0.9211       0.000117445  1.66013e-05  0.000127505  
0.92348      0.000119244  1.68106e-05  0.000129124  
0.92586      0.000121065  1.70219e-05  0.00013076   
0.92824      0.00012291   1.72352e-05  0.000132412  
0.93062      0.000124777  1.74507e-05  0.00013408   
0.933        0.000126668  1.76682e-05  0.000135764  
0.93538      0.000128583  1.78878e-05  0.000137466  
0.93776      0.000130521  1.81096e-05  0.000139184  
0.94014      0.000132483  1.83335e-05  0.000140918  
0.94252      0.000134469  1.85596e-05  0.00014267   
0.9449       0.00013648   1.87878e-05  0.000144439  
0.94728      0.000138516  1.90183e-05  0.000146225  
0.94966      0.000140576  1.92509e-05  0.000148028  
0.95204      0.000142662  1.94857e-05  0.000149849  
0.95442      0.000144773  1.97228e-05  0.000151687  
0.9568       0.00014691   1.99621e-05  0.000153543  
0.95918      0.000149072  2.02037e-05  0.000155416  
0.96156      0.000151261  2.04475e-05  0.000157308  
0.96394      0.000153476  2.06936e-05  0.000159218  
0.96632      0.000155718  2.09421e-05  0.000161145  
0.9687       0.000157987  2.11928e-05  0.000163091  
0.97108      0.000160282  2.14459e-05  0.000165056  
0.97346      0.000162606  2.17013e-05  0.000167039  
0.97584      0.000164956  2.19591e-05  0.00016904   
0.97822      0.000167335  2.22193e-05  0.000171061  
0.9806       0.000169742  2.24819e-05  0.0001731    
0.98298      0.000172177  2.27469e-05  0.000175158  
