# mass number (A) = 48
# number of protons (Z) = 20
# P (GeV)	cm two_body (GeV^-3)
0.0	4.69360492826
0.02	4.69061827209
0.04	4.68167315209
0.06	4.66681385456
0.08	4.64611333673
0.1	4.61967198583
0.12	4.58761595674
0.14	4.55009515795
0.16	4.50728096775
0.18	4.4593637699
0.2	4.40655040048
0.22	4.34906159456
0.24	4.2871295132
0.26	4.22099541968
0.28	4.15090755825
0.3	4.07711927135
0.32	3.99988737337
0.34	3.91947078064
0.36	3.83612938179
0.38	3.75012311862
0.4	3.66171123747
0.42	3.57115166516
0.44	3.47870046112
0.46	3.38461129953
0.48	3.28913494079
0.5	3.19251866044
0.52	3.09500561432
0.54	2.99683413099
0.56	2.89823693468
0.58	2.79944031362
0.6	2.70066325851
0.62	2.60211660346
0.64	2.50400220646
0.66	2.4065122078
0.68	2.30982840334
0.7	2.2141217648
0.72	2.11955213178
0.74	2.02626809137
0.76	1.9344070501
0.78	1.84409549248
0.8	1.75544940933
0.82	1.66857486954
0.84	1.58356870081
0.86	1.50051923941
0.88	1.41950710535
0.9	1.34060595922
0.92	1.26388319886
0.94	1.18940055868
0.96	1.11721458124
0.98	1.04737693898
1.0	0.979934593332
1.02	0.91492978873
1.04	0.852399888242
1.06	0.792377067176
1.08	0.734887888602
1.1	0.679952791185
1.12	0.627585524183
1.14	0.577792566905
1.16	0.530572570357
1.18	0.485915857249
1.2	0.443804013211
1.22	0.404209597276
1.24	0.367095993708
1.26	0.332417420538
1.28	0.300119102997
1.3	0.270137612954
1.32	0.242401368595
1.34	0.216831282471
1.36	0.193341540713
1.38	0.171840492015
1.4	0.1522316219
1.42	0.134414585928
1.44	0.118286274852
1.46	0.10374188512
1.48	0.0906759695555
1.5	0.0789834452763
1.52	0.0685605388095
1.54	0.0593056517044
1.56	0.0511201335804
1.58	0.0439089532827
1.6	0.0375812624863
1.62	0.0320508495742
1.64	0.0272364847811
1.66	0.023062160378
1.68	0.0194572320064
1.7	0.0163564691265
1.72	0.0137000239244
1.74	0.0114333289295
1.76	0.0095069340739
1.78	0.00787629400959
1.8	0.00650151625307
1.82	0.00534708020202
1.84	0.00438153632653
1.86	0.0035771939396
1.88	0.00290980495031
1.9	0.00235824995081
1.92	0.00190423192731
1.94	0.00153198185203
1.96	0.00122797943687
1.98	0.000980691431658
2.0	0.000780329044743
2.02	0.000618625360705
2.04	0.000488633031585
2.06	0.000384542023874
2.08	0.000301516808542
2.1	0.000235552078608
2.12	0.00018334585915
2.14	0.000142188728125
2.16	0.000109867782475
2.18	8.45839521742e-05
2.2	6.48812751876e-05
2.22	4.95867894006e-05
2.24	3.77597651183e-05
2.26	2.86490863447e-05
2.28	2.16576844859e-05
2.3	1.63130291835e-05
2.32	1.22427834633e-05
2.34	9.1548310391e-06
2.36	6.82097999207e-06
2.38	5.06373744943e-06
2.4	3.74563319612e-06
2.42	2.76064576514e-06
2.44	2.02735224985e-06
2.46	1.48348295738e-06
2.48	1.08161439152e-06
2.5	7.85779387359e-07
2.52	5.68812088604e-07
2.54	4.1027848458e-07
2.56	2.94871047873e-07
2.58	2.11169265503e-07
2.6	1.50687138369e-07
2.62	1.07144595093e-07
2.64	7.59127377898e-08
2.66	5.35933658585e-08
2.68	3.77017128453e-08
2.7	2.64281318527e-08
2.72	1.84598784795e-08
2.74	1.28484234395e-08
2.76	8.91109558944e-09
2.78	6.15848993174e-09
2.8	4.2411227344e-09
2.82	2.91039879761e-09
2.84	1.99017281811e-09
2.86	1.35611730986e-09
2.88	9.20817254811e-10
2.9	6.23047103779e-10
2.92	4.20088763494e-10
2.94	2.82251001158e-10
2.96	1.88975557069e-10
2.98	1.26081960623e-10
3.0	8.38260287219e-11
3.02	5.55373144245e-11
3.04	3.66667412e-11
3.06	2.41236267282e-11
3.08	1.5816016605e-11
3.1	1.03332565343e-11
3.12	6.72766320352e-12
3.14	4.36495260675e-12
3.16	2.82217796124e-12
3.18	1.81836108699e-12
3.2	1.16752990106e-12
3.22	7.47049380856e-13
3.24	4.76349016765e-13
3.26	3.0268934586e-13
3.28	1.91675283318e-13
3.3	1.20957670357e-13
3.32	7.60676891035e-14
3.34	4.76724766412e-14
3.36	2.97739906676e-14
3.38	1.85314484924e-14
3.4	1.1494386631e-14
3.42	7.10505536479e-15
3.44	4.37678752554e-15
3.46	2.68689615146e-15
3.48	1.64382201346e-15
3.5	1.00223198005e-15
3.52	6.08964984164e-16
3.54	3.68746595787e-16
3.56	2.22523751131e-16
3.58	1.33825349615e-16
3.6	8.02075142937e-17
3.62	4.79079256241e-17
3.64	2.85178174283e-17
3.66	1.69177564274e-17
3.68	1.00020210217e-17
3.7	5.89321388069e-18
3.72	3.46048531156e-18
3.74	2.02508424316e-18
3.76	1.18105835178e-18
3.78	6.86471765545e-19
3.8	3.97647214373e-19
3.82	2.29560951209e-19
3.84	1.32075951451e-19
3.86	7.57314000563e-20
3.88	4.32768421035e-20
3.9	2.46469567534e-20
3.92	1.39894300015e-20
3.94	7.91346190163e-21
3.96	4.46132215961e-21
3.98	2.50664026966e-21
4.0	1.40362977038e-21
4.02	7.83332283763e-22
4.04	4.35685526036e-22
4.06	2.41509732882e-22
4.08	1.33423177277e-22
4.1	7.3462175235e-23
4.12	4.03118633442e-23
4.14	2.20464799461e-23
4.16	1.20166563112e-23
4.18	6.52779811658e-24
4.2	3.53418408943e-24
4.22	1.9070043172e-24
4.24	1.02554544744e-24
4.26	5.4966683495e-25
4.28	2.93620381744e-25
4.3	1.56320362286e-25
4.32	8.29446224598e-26
4.34	4.38636609571e-26
4.36	2.31188432898e-26
4.38	1.21443011214e-26
4.4	6.35806207919e-27
4.42	3.31759535773e-27
4.44	1.72531768985e-27
4.46	8.94256972252e-28
4.48	4.61959365635e-28
4.5	2.37844972232e-28
4.52	1.22048796578e-28
4.54	6.24198783445e-29
4.56	3.18172603099e-29
4.58	1.61641786488e-29
4.6	8.18457332684e-30
4.62	4.1303849183e-30
4.64	2.07748368047e-30
4.66	1.04144863322e-30
4.68	5.20345433125e-31
4.7	2.59119331539e-31
4.72	1.2860639535e-31
4.74	6.36180721639e-32
4.76	3.13656382251e-32
4.78	1.54128847949e-32
4.8	7.54866933769e-33
4.82	3.68480084625e-33
4.84	1.79273156284e-33
4.86	8.69309863218e-34
4.88	4.20138533064e-34
4.9	2.0238086583e-34
4.92	9.71641082003e-35
4.94	4.64945688998e-35
4.96	2.21747619461e-35
4.98	1.05408718835e-35
5.0	4.99407855639e-36
#normalisation = 0.979195894803
