# Mass = 0.0473265 Mev*(hbarc)^2/2 
# R = 4.82059 fm 
# a = 0.662 fm 
# V0 = 56.2183 MeV 
# RSO = 4.438 fm 
# aSO = 0.662 fm 
# VSO = 28.772 MeV fm^2
# l = 0 
# two_j = 1 
# two_t = 1 
# Energy = -35.6954 MeV
# r 	 V_eff [2m/hbar/hbar]
0.01 	-44.993
0.012398 	-44.9929
0.014796 	-44.9928
0.017194 	-44.9926
0.019592 	-44.9925
0.02199 	-44.9924
0.024388 	-44.9922
0.026786 	-44.9921
0.029184 	-44.992
0.031582 	-44.9919
0.03398 	-44.9917
0.036378 	-44.9916
0.038776 	-44.9915
0.041174 	-44.9914
0.043572 	-44.9913
0.04597 	-44.9912
0.048368 	-44.991
0.050766 	-44.9909
0.053164 	-44.9908
0.055562 	-44.9907
0.05796 	-44.9906
0.060358 	-44.9905
0.062756 	-44.9904
0.065154 	-44.9903
0.067552 	-44.9902
0.06995 	-44.9901
0.072348 	-44.99
0.074746 	-44.9899
0.077144 	-44.9898
0.079542 	-44.9897
0.08194 	-44.9896
0.084338 	-44.9895
0.086736 	-44.9894
0.089134 	-44.9893
0.091532 	-44.9892
0.09393 	-44.9891
0.096328 	-44.989
0.098726 	-44.9889
0.101124 	-44.9889
0.103522 	-44.9888
0.10592 	-44.9887
0.108318 	-44.9886
0.110716 	-44.9885
0.113114 	-44.9884
0.115512 	-44.9884
0.11791 	-44.9883
0.120308 	-44.9882
0.122706 	-44.9881
0.125104 	-44.9881
0.127502 	-44.988
0.1299 	-44.9879
0.132298 	-44.9879
0.134696 	-44.9878
0.137094 	-44.9877
0.139492 	-44.9877
0.14189 	-44.9876
0.144288 	-44.9875
0.146686 	-44.9875
0.149084 	-44.9874
0.151482 	-44.9873
0.15388 	-44.9873
0.156278 	-44.9872
0.158676 	-44.9872
0.161074 	-44.9871
0.163472 	-44.9871
0.16587 	-44.987
0.168268 	-44.987
0.170666 	-44.9869
0.173064 	-44.9869
0.175462 	-44.9868
0.17786 	-44.9868
0.180258 	-44.9867
0.182656 	-44.9867
0.185054 	-44.9866
0.187452 	-44.9866
0.18985 	-44.9865
0.192248 	-44.9865
0.194646 	-44.9865
0.197044 	-44.9864
0.199442 	-44.9864
0.20184 	-44.9864
0.204238 	-44.9863
0.206636 	-44.9863
0.209034 	-44.9863
0.211432 	-44.9862
0.21383 	-44.9862
0.216228 	-44.9862
0.218626 	-44.9861
0.221024 	-44.9861
0.223422 	-44.9861
0.22582 	-44.9861
0.228218 	-44.9861
0.230616 	-44.986
0.233014 	-44.986
0.235412 	-44.986
0.23781 	-44.986
0.240208 	-44.986
0.242606 	-44.9859
0.245004 	-44.9859
0.247402 	-44.9859
0.2498 	-44.9859
0.252198 	-44.9859
0.254596 	-44.9859
0.256994 	-44.9859
0.259392 	-44.9859
0.26179 	-44.9859
0.264188 	-44.9859
0.266586 	-44.9858
0.268984 	-44.9858
0.271382 	-44.9858
0.27378 	-44.9858
0.276178 	-44.9858
0.278576 	-44.9858
0.280974 	-44.9858
0.283372 	-44.9858
0.28577 	-44.9859
0.288168 	-44.9859
0.290566 	-44.9859
0.292964 	-44.9859
0.295362 	-44.9859
0.29776 	-44.9859
0.300158 	-44.9859
0.302556 	-44.9859
0.304954 	-44.9859
0.307352 	-44.9859
0.30975 	-44.986
0.312148 	-44.986
0.314546 	-44.986
0.316944 	-44.986
0.319342 	-44.986
0.32174 	-44.986
0.324138 	-44.9861
0.326536 	-44.9861
0.328934 	-44.9861
0.331332 	-44.9861
0.33373 	-44.9862
0.336128 	-44.9862
0.338526 	-44.9862
0.340924 	-44.9862
0.343322 	-44.9863
0.34572 	-44.9863
0.348118 	-44.9863
0.350516 	-44.9864
0.352914 	-44.9864
0.355312 	-44.9864
0.35771 	-44.9865
0.360108 	-44.9865
0.362506 	-44.9865
0.364904 	-44.9866
0.367302 	-44.9866
0.3697 	-44.9866
0.372098 	-44.9867
0.374496 	-44.9867
0.376894 	-44.9868
0.379292 	-44.9868
0.38169 	-44.9869
0.384088 	-44.9869
0.386486 	-44.987
0.388884 	-44.987
0.391282 	-44.987
0.39368 	-44.9871
0.396078 	-44.9871
0.398476 	-44.9872
0.400874 	-44.9873
0.403272 	-44.9873
0.40567 	-44.9874
0.408068 	-44.9874
0.410466 	-44.9875
0.412864 	-44.9875
0.415262 	-44.9876
0.41766 	-44.9876
0.420058 	-44.9877
0.422456 	-44.9878
0.424854 	-44.9878
0.427252 	-44.9879
0.42965 	-44.9879
0.432048 	-44.988
0.434446 	-44.9881
0.436844 	-44.9881
0.439242 	-44.9882
0.44164 	-44.9883
0.444038 	-44.9883
0.446436 	-44.9884
0.448834 	-44.9885
0.451232 	-44.9885
0.45363 	-44.9886
0.456028 	-44.9887
0.458426 	-44.9888
0.460824 	-44.9888
0.463222 	-44.9889
0.46562 	-44.989
0.468018 	-44.9891
0.470416 	-44.9891
0.472814 	-44.9892
0.475212 	-44.9893
0.47761 	-44.9894
0.480008 	-44.9895
0.482406 	-44.9895
0.484804 	-44.9896
0.487202 	-44.9897
0.4896 	-44.9898
0.491998 	-44.9899
0.494396 	-44.99
0.496794 	-44.99
0.499192 	-44.9901
0.50159 	-44.9902
0.503988 	-44.9903
0.506386 	-44.9904
0.508784 	-44.9905
0.511182 	-44.9906
0.51358 	-44.9907
0.515978 	-44.9908
0.518376 	-44.9909
0.520774 	-44.991
0.523172 	-44.991
0.52557 	-44.9911
0.527968 	-44.9912
0.530366 	-44.9913
0.532764 	-44.9914
0.535162 	-44.9915
0.53756 	-44.9916
0.539958 	-44.9917
0.542356 	-44.9918
0.544754 	-44.9919
0.547152 	-44.992
0.54955 	-44.9921
0.551948 	-44.9922
0.554346 	-44.9923
0.556744 	-44.9924
0.559142 	-44.9925
0.56154 	-44.9927
0.563938 	-44.9928
0.566336 	-44.9929
0.568734 	-44.993
0.571132 	-44.9931
0.57353 	-44.9932
0.575928 	-44.9933
0.578326 	-44.9934
0.580724 	-44.9935
0.583122 	-44.9936
0.58552 	-44.9937
0.587918 	-44.9939
0.590316 	-44.994
0.592714 	-44.9941
0.595112 	-44.9942
0.59751 	-44.9943
0.599908 	-44.9944
0.602306 	-44.9945
0.604704 	-44.9947
0.607102 	-44.9948
0.6095 	-44.9949
0.611898 	-44.995
0.614296 	-44.9951
0.616694 	-44.9953
0.619092 	-44.9954
0.62149 	-44.9955
0.623888 	-44.9956
0.626286 	-44.9957
0.628684 	-44.9959
0.631082 	-44.996
0.63348 	-44.9961
0.635878 	-44.9962
0.638276 	-44.9964
0.640674 	-44.9965
0.643072 	-44.9966
0.64547 	-44.9967
0.647868 	-44.9969
0.650266 	-44.997
0.652664 	-44.9971
0.655062 	-44.9973
0.65746 	-44.9974
0.659858 	-44.9975
0.662256 	-44.9976
0.664654 	-44.9978
0.667052 	-44.9979
0.66945 	-44.998
0.671848 	-44.9982
0.674246 	-44.9983
0.676644 	-44.9984
0.679042 	-44.9986
0.68144 	-44.9987
0.683838 	-44.9988
0.686236 	-44.999
0.688634 	-44.9991
0.691032 	-44.9992
0.69343 	-44.9994
0.695828 	-44.9995
0.698226 	-44.9996
0.700624 	-44.9998
0.703022 	-44.9999
0.70542 	-45.0001
0.707818 	-45.0002
0.710216 	-45.0003
0.712614 	-45.0005
0.715012 	-45.0006
0.71741 	-45.0007
0.719808 	-45.0009
0.722206 	-45.001
0.724604 	-45.0012
0.727002 	-45.0013
0.7294 	-45.0015
0.731798 	-45.0016
0.734196 	-45.0017
0.736594 	-45.0019
0.738992 	-45.002
0.74139 	-45.0022
0.743788 	-45.0023
0.746186 	-45.0024
0.748584 	-45.0026
0.750982 	-45.0027
0.75338 	-45.0029
0.755778 	-45.003
0.758176 	-45.0032
0.760574 	-45.0033
0.762972 	-45.0035
0.76537 	-45.0036
0.767768 	-45.0038
0.770166 	-45.0039
0.772564 	-45.004
0.774962 	-45.0042
0.77736 	-45.0043
0.779758 	-45.0045
0.782156 	-45.0046
0.784554 	-45.0048
0.786952 	-45.0049
0.78935 	-45.0051
0.791748 	-45.0052
0.794146 	-45.0054
0.796544 	-45.0055
0.798942 	-45.0057
0.80134 	-45.0058
0.803738 	-45.006
0.806136 	-45.0061
0.808534 	-45.0063
0.810932 	-45.0064
0.81333 	-45.0066
0.815728 	-45.0067
0.818126 	-45.0069
0.820524 	-45.007
0.822922 	-45.0072
0.82532 	-45.0073
0.827718 	-45.0075
0.830116 	-45.0076
0.832514 	-45.0078
0.834912 	-45.0079
0.83731 	-45.0081
0.839708 	-45.0082
0.842106 	-45.0084
0.844504 	-45.0085
0.846902 	-45.0087
0.8493 	-45.0088
0.851698 	-45.009
0.854096 	-45.0091
0.856494 	-45.0093
0.858892 	-45.0094
0.86129 	-45.0096
0.863688 	-45.0097
0.866086 	-45.0099
0.868484 	-45.01
0.870882 	-45.0102
0.87328 	-45.0103
0.875678 	-45.0105
0.878076 	-45.0106
0.880474 	-45.0108
0.882872 	-45.0109
0.88527 	-45.0111
0.887668 	-45.0112
0.890066 	-45.0114
0.892464 	-45.0115
0.894862 	-45.0117
0.89726 	-45.0118
0.899658 	-45.012
0.902056 	-45.0121
0.904454 	-45.0123
0.906852 	-45.0124
0.90925 	-45.0126
0.911648 	-45.0127
0.914046 	-45.0129
0.916444 	-45.013
0.918842 	-45.0132
0.92124 	-45.0133
0.923638 	-45.0135
0.926036 	-45.0136
0.928434 	-45.0138
0.930832 	-45.0139
0.93323 	-45.0141
0.935628 	-45.0142
0.938026 	-45.0144
0.940424 	-45.0145
0.942822 	-45.0147
0.94522 	-45.0148
0.947618 	-45.0149
0.950016 	-45.0151
0.952414 	-45.0152
0.954812 	-45.0154
0.95721 	-45.0155
0.959608 	-45.0157
0.962006 	-45.0158
0.964404 	-45.016
0.966802 	-45.0161
0.9692 	-45.0163
0.971598 	-45.0164
0.973996 	-45.0165
0.976394 	-45.0167
0.978792 	-45.0168
0.98119 	-45.017
0.983588 	-45.0171
0.985986 	-45.0173
0.988384 	-45.0174
0.990782 	-45.0175
0.99318 	-45.0177
0.995578 	-45.0178
0.997976 	-45.018
1.00037 	-45.0181
1.00277 	-45.0182
1.00517 	-45.0184
1.00757 	-45.0185
1.00997 	-45.0186
1.01236 	-45.0188
1.01476 	-45.0189
1.01716 	-45.0191
1.01956 	-45.0192
1.02196 	-45.0193
1.02435 	-45.0195
1.02675 	-45.0196
1.02915 	-45.0197
1.03155 	-45.0199
1.03395 	-45.02
1.03634 	-45.0201
1.03874 	-45.0203
1.04114 	-45.0204
1.04354 	-45.0205
1.04594 	-45.0206
1.04833 	-45.0208
1.05073 	-45.0209
1.05313 	-45.021
1.05553 	-45.0212
1.05793 	-45.0213
1.06032 	-45.0214
1.06272 	-45.0215
1.06512 	-45.0217
1.06752 	-45.0218
1.06992 	-45.0219
1.07231 	-45.022
1.07471 	-45.0222
1.07711 	-45.0223
1.07951 	-45.0224
1.08191 	-45.0225
1.0843 	-45.0226
1.0867 	-45.0228
1.0891 	-45.0229
1.0915 	-45.023
1.0939 	-45.0231
1.09629 	-45.0232
1.09869 	-45.0233
1.10109 	-45.0234
1.10349 	-45.0236
1.10589 	-45.0237
1.10828 	-45.0238
1.11068 	-45.0239
1.11308 	-45.024
1.11548 	-45.0241
1.11788 	-45.0242
1.12027 	-45.0243
1.12267 	-45.0244
1.12507 	-45.0245
1.12747 	-45.0246
1.12987 	-45.0248
1.13226 	-45.0249
1.13466 	-45.025
1.13706 	-45.0251
1.13946 	-45.0252
1.14186 	-45.0253
1.14425 	-45.0254
1.14665 	-45.0255
1.14905 	-45.0255
1.15145 	-45.0256
1.15385 	-45.0257
1.15624 	-45.0258
1.15864 	-45.0259
1.16104 	-45.026
1.16344 	-45.0261
1.16584 	-45.0262
1.16823 	-45.0263
1.17063 	-45.0264
1.17303 	-45.0265
1.17543 	-45.0265
1.17783 	-45.0266
1.18022 	-45.0267
1.18262 	-45.0268
1.18502 	-45.0269
1.18742 	-45.0269
1.18982 	-45.027
1.19221 	-45.0271
1.19461 	-45.0272
1.19701 	-45.0272
1.19941 	-45.0273
1.20181 	-45.0274
1.2042 	-45.0275
1.2066 	-45.0275
1.209 	-45.0276
1.2114 	-45.0277
1.2138 	-45.0277
1.21619 	-45.0278
1.21859 	-45.0279
1.22099 	-45.0279
1.22339 	-45.028
1.22579 	-45.028
1.22818 	-45.0281
1.23058 	-45.0282
1.23298 	-45.0282
1.23538 	-45.0283
1.23778 	-45.0283
1.24017 	-45.0284
1.24257 	-45.0284
1.24497 	-45.0285
1.24737 	-45.0285
1.24977 	-45.0286
1.25216 	-45.0286
1.25456 	-45.0287
1.25696 	-45.0287
1.25936 	-45.0287
1.26176 	-45.0288
1.26415 	-45.0288
1.26655 	-45.0288
1.26895 	-45.0289
1.27135 	-45.0289
1.27375 	-45.0289
1.27614 	-45.029
1.27854 	-45.029
1.28094 	-45.029
1.28334 	-45.029
1.28574 	-45.0291
1.28813 	-45.0291
1.29053 	-45.0291
1.29293 	-45.0291
1.29533 	-45.0291
1.29773 	-45.0292
1.30012 	-45.0292
1.30252 	-45.0292
1.30492 	-45.0292
1.30732 	-45.0292
1.30972 	-45.0292
1.31211 	-45.0292
1.31451 	-45.0292
1.31691 	-45.0292
1.31931 	-45.0292
1.32171 	-45.0292
1.3241 	-45.0292
1.3265 	-45.0292
1.3289 	-45.0292
1.3313 	-45.0292
1.3337 	-45.0292
1.33609 	-45.0291
1.33849 	-45.0291
1.34089 	-45.0291
1.34329 	-45.0291
1.34569 	-45.0291
1.34808 	-45.029
1.35048 	-45.029
1.35288 	-45.029
1.35528 	-45.029
1.35768 	-45.0289
1.36007 	-45.0289
1.36247 	-45.0289
1.36487 	-45.0288
1.36727 	-45.0288
1.36967 	-45.0287
1.37206 	-45.0287
1.37446 	-45.0287
1.37686 	-45.0286
1.37926 	-45.0286
1.38166 	-45.0285
1.38405 	-45.0284
1.38645 	-45.0284
1.38885 	-45.0283
1.39125 	-45.0283
1.39365 	-45.0282
1.39604 	-45.0281
1.39844 	-45.0281
1.40084 	-45.028
1.40324 	-45.0279
1.40564 	-45.0279
1.40803 	-45.0278
1.41043 	-45.0277
1.41283 	-45.0276
1.41523 	-45.0275
1.41763 	-45.0274
1.42002 	-45.0274
1.42242 	-45.0273
1.42482 	-45.0272
1.42722 	-45.0271
1.42962 	-45.027
1.43201 	-45.0269
1.43441 	-45.0268
1.43681 	-45.0267
1.43921 	-45.0266
1.44161 	-45.0264
1.444 	-45.0263
1.4464 	-45.0262
1.4488 	-45.0261
1.4512 	-45.026
1.4536 	-45.0259
1.45599 	-45.0257
1.45839 	-45.0256
1.46079 	-45.0255
1.46319 	-45.0253
1.46559 	-45.0252
1.46798 	-45.0251
1.47038 	-45.0249
1.47278 	-45.0248
1.47518 	-45.0246
1.47758 	-45.0245
1.47997 	-45.0243
1.48237 	-45.0242
1.48477 	-45.024
1.48717 	-45.0238
1.48957 	-45.0237
1.49196 	-45.0235
1.49436 	-45.0233
1.49676 	-45.0232
1.49916 	-45.023
1.50156 	-45.0228
1.50395 	-45.0226
1.50635 	-45.0224
1.50875 	-45.0223
1.51115 	-45.0221
1.51355 	-45.0219
1.51594 	-45.0217
1.51834 	-45.0215
1.52074 	-45.0213
1.52314 	-45.0211
1.52554 	-45.0209
1.52793 	-45.0207
1.53033 	-45.0204
1.53273 	-45.0202
1.53513 	-45.02
1.53753 	-45.0198
1.53992 	-45.0195
1.54232 	-45.0193
1.54472 	-45.0191
1.54712 	-45.0188
1.54952 	-45.0186
1.55191 	-45.0184
1.55431 	-45.0181
1.55671 	-45.0179
1.55911 	-45.0176
1.56151 	-45.0173
1.5639 	-45.0171
1.5663 	-45.0168
1.5687 	-45.0166
1.5711 	-45.0163
1.5735 	-45.016
1.57589 	-45.0157
1.57829 	-45.0155
1.58069 	-45.0152
1.58309 	-45.0149
1.58549 	-45.0146
1.58788 	-45.0143
1.59028 	-45.014
1.59268 	-45.0137
1.59508 	-45.0134
1.59748 	-45.0131
1.59987 	-45.0128
1.60227 	-45.0124
1.60467 	-45.0121
1.60707 	-45.0118
1.60947 	-45.0115
1.61186 	-45.0111
1.61426 	-45.0108
1.61666 	-45.0105
1.61906 	-45.0101
1.62146 	-45.0098
1.62385 	-45.0094
1.62625 	-45.0091
1.62865 	-45.0087
1.63105 	-45.0083
1.63345 	-45.008
1.63584 	-45.0076
1.63824 	-45.0072
1.64064 	-45.0069
1.64304 	-45.0065
1.64544 	-45.0061
1.64783 	-45.0057
1.65023 	-45.0053
1.65263 	-45.0049
1.65503 	-45.0045
1.65743 	-45.0041
1.65982 	-45.0037
1.66222 	-45.0033
1.66462 	-45.0029
1.66702 	-45.0024
1.66942 	-45.002
1.67181 	-45.0016
1.67421 	-45.0011
1.67661 	-45.0007
1.67901 	-45.0002
1.68141 	-44.9998
1.6838 	-44.9993
1.6862 	-44.9989
1.6886 	-44.9984
1.691 	-44.998
1.6934 	-44.9975
1.69579 	-44.997
1.69819 	-44.9965
1.70059 	-44.996
1.70299 	-44.9956
1.70539 	-44.9951
1.70778 	-44.9946
1.71018 	-44.9941
1.71258 	-44.9935
1.71498 	-44.993
1.71738 	-44.9925
1.71977 	-44.992
1.72217 	-44.9915
1.72457 	-44.9909
1.72697 	-44.9904
1.72937 	-44.9899
1.73176 	-44.9893
1.73416 	-44.9888
1.73656 	-44.9882
1.73896 	-44.9876
1.74136 	-44.9871
1.74375 	-44.9865
1.74615 	-44.9859
1.74855 	-44.9854
1.75095 	-44.9848
1.75335 	-44.9842
1.75574 	-44.9836
1.75814 	-44.983
1.76054 	-44.9824
1.76294 	-44.9818
1.76534 	-44.9812
1.76773 	-44.9805
1.77013 	-44.9799
1.77253 	-44.9793
1.77493 	-44.9786
1.77733 	-44.978
1.77972 	-44.9774
1.78212 	-44.9767
1.78452 	-44.976
1.78692 	-44.9754
1.78932 	-44.9747
1.79171 	-44.974
1.79411 	-44.9734
1.79651 	-44.9727
1.79891 	-44.972
1.80131 	-44.9713
1.8037 	-44.9706
1.8061 	-44.9699
1.8085 	-44.9692
1.8109 	-44.9684
1.8133 	-44.9677
1.81569 	-44.967
1.81809 	-44.9663
1.82049 	-44.9655
1.82289 	-44.9648
1.82529 	-44.964
1.82768 	-44.9633
1.83008 	-44.9625
1.83248 	-44.9617
1.83488 	-44.9609
1.83728 	-44.9602
1.83967 	-44.9594
1.84207 	-44.9586
1.84447 	-44.9578
1.84687 	-44.957
1.84927 	-44.9562
1.85166 	-44.9553
1.85406 	-44.9545
1.85646 	-44.9537
1.85886 	-44.9529
1.86126 	-44.952
1.86365 	-44.9512
1.86605 	-44.9503
1.86845 	-44.9494
1.87085 	-44.9486
1.87325 	-44.9477
1.87564 	-44.9468
1.87804 	-44.9459
1.88044 	-44.945
1.88284 	-44.9441
1.88524 	-44.9432
1.88763 	-44.9423
1.89003 	-44.9414
1.89243 	-44.9405
1.89483 	-44.9396
1.89723 	-44.9386
1.89962 	-44.9377
1.90202 	-44.9367
1.90442 	-44.9358
1.90682 	-44.9348
1.90922 	-44.9338
1.91161 	-44.9328
1.91401 	-44.9319
1.91641 	-44.9309
1.91881 	-44.9299
1.92121 	-44.9289
1.9236 	-44.9278
1.926 	-44.9268
1.9284 	-44.9258
1.9308 	-44.9248
1.9332 	-44.9237
1.93559 	-44.9227
1.93799 	-44.9216
1.94039 	-44.9205
1.94279 	-44.9195
1.94519 	-44.9184
1.94758 	-44.9173
1.94998 	-44.9162
1.95238 	-44.9151
1.95478 	-44.914
1.95718 	-44.9129
1.95957 	-44.9118
1.96197 	-44.9107
1.96437 	-44.9095
1.96677 	-44.9084
1.96917 	-44.9072
1.97156 	-44.9061
1.97396 	-44.9049
1.97636 	-44.9037
1.97876 	-44.9025
1.98116 	-44.9013
1.98355 	-44.9002
1.98595 	-44.8989
1.98835 	-44.8977
1.99075 	-44.8965
1.99315 	-44.8953
1.99554 	-44.894
1.99794 	-44.8928
2.00034 	-44.8915
2.00274 	-44.8903
2.00514 	-44.889
2.00753 	-44.8877
2.00993 	-44.8865
2.01233 	-44.8852
2.01473 	-44.8839
2.01713 	-44.8826
2.01952 	-44.8812
2.02192 	-44.8799
2.02432 	-44.8786
2.02672 	-44.8772
2.02912 	-44.8759
2.03151 	-44.8745
2.03391 	-44.8732
2.03631 	-44.8718
2.03871 	-44.8704
2.04111 	-44.869
2.0435 	-44.8676
2.0459 	-44.8662
2.0483 	-44.8648
2.0507 	-44.8633
2.0531 	-44.8619
2.05549 	-44.8605
2.05789 	-44.859
2.06029 	-44.8575
2.06269 	-44.8561
2.06509 	-44.8546
2.06748 	-44.8531
2.06988 	-44.8516
2.07228 	-44.8501
2.07468 	-44.8486
2.07708 	-44.8471
2.07947 	-44.8455
2.08187 	-44.844
2.08427 	-44.8424
2.08667 	-44.8409
2.08907 	-44.8393
2.09146 	-44.8377
2.09386 	-44.8361
2.09626 	-44.8345
2.09866 	-44.8329
2.10106 	-44.8313
2.10345 	-44.8297
2.10585 	-44.828
2.10825 	-44.8264
2.11065 	-44.8247
2.11305 	-44.8231
2.11544 	-44.8214
2.11784 	-44.8197
2.12024 	-44.818
2.12264 	-44.8163
2.12504 	-44.8146
2.12743 	-44.8128
2.12983 	-44.8111
2.13223 	-44.8094
2.13463 	-44.8076
2.13703 	-44.8058
2.13942 	-44.8041
2.14182 	-44.8023
2.14422 	-44.8005
2.14662 	-44.7987
2.14902 	-44.7969
2.15141 	-44.795
2.15381 	-44.7932
2.15621 	-44.7914
2.15861 	-44.7895
2.16101 	-44.7876
2.1634 	-44.7857
2.1658 	-44.7839
2.1682 	-44.782
2.1706 	-44.78
2.173 	-44.7781
2.17539 	-44.7762
2.17779 	-44.7743
2.18019 	-44.7723
2.18259 	-44.7703
2.18499 	-44.7684
2.18738 	-44.7664
2.18978 	-44.7644
2.19218 	-44.7624
2.19458 	-44.7603
2.19698 	-44.7583
2.19937 	-44.7563
2.20177 	-44.7542
2.20417 	-44.7522
2.20657 	-44.7501
2.20897 	-44.748
2.21136 	-44.7459
2.21376 	-44.7438
2.21616 	-44.7417
2.21856 	-44.7395
2.22096 	-44.7374
2.22335 	-44.7352
2.22575 	-44.7331
2.22815 	-44.7309
2.23055 	-44.7287
2.23295 	-44.7265
2.23534 	-44.7243
2.23774 	-44.7221
2.24014 	-44.7198
2.24254 	-44.7176
2.24494 	-44.7153
2.24733 	-44.713
2.24973 	-44.7107
2.25213 	-44.7084
2.25453 	-44.7061
2.25693 	-44.7038
2.25932 	-44.7015
2.26172 	-44.6991
2.26412 	-44.6968
2.26652 	-44.6944
2.26892 	-44.692
2.27131 	-44.6896
2.27371 	-44.6872
2.27611 	-44.6848
2.27851 	-44.6823
2.28091 	-44.6799
2.2833 	-44.6774
2.2857 	-44.675
2.2881 	-44.6725
2.2905 	-44.67
2.2929 	-44.6675
2.29529 	-44.6649
2.29769 	-44.6624
2.30009 	-44.6599
2.30249 	-44.6573
2.30489 	-44.6547
2.30728 	-44.6521
2.30968 	-44.6495
2.31208 	-44.6469
2.31448 	-44.6443
2.31688 	-44.6416
2.31927 	-44.639
2.32167 	-44.6363
2.32407 	-44.6336
2.32647 	-44.6309
2.32887 	-44.6282
2.33126 	-44.6255
2.33366 	-44.6227
2.33606 	-44.62
2.33846 	-44.6172
2.34086 	-44.6144
2.34325 	-44.6116
2.34565 	-44.6088
2.34805 	-44.606
2.35045 	-44.6032
2.35285 	-44.6003
2.35524 	-44.5974
2.35764 	-44.5946
2.36004 	-44.5917
2.36244 	-44.5888
2.36484 	-44.5858
2.36723 	-44.5829
2.36963 	-44.5799
2.37203 	-44.577
2.37443 	-44.574
2.37683 	-44.571
2.37922 	-44.568
2.38162 	-44.565
2.38402 	-44.5619
2.38642 	-44.5589
2.38882 	-44.5558
2.39121 	-44.5527
2.39361 	-44.5496
2.39601 	-44.5465
2.39841 	-44.5433
2.40081 	-44.5402
2.4032 	-44.537
2.4056 	-44.5339
2.408 	-44.5307
2.4104 	-44.5275
2.4128 	-44.5242
2.41519 	-44.521
2.41759 	-44.5177
2.41999 	-44.5145
2.42239 	-44.5112
2.42479 	-44.5079
2.42718 	-44.5045
2.42958 	-44.5012
2.43198 	-44.4979
2.43438 	-44.4945
2.43678 	-44.4911
2.43917 	-44.4877
2.44157 	-44.4843
2.44397 	-44.4809
2.44637 	-44.4774
2.44877 	-44.4739
2.45116 	-44.4705
2.45356 	-44.467
2.45596 	-44.4634
2.45836 	-44.4599
2.46076 	-44.4564
2.46315 	-44.4528
2.46555 	-44.4492
2.46795 	-44.4456
2.47035 	-44.442
2.47275 	-44.4384
2.47514 	-44.4347
2.47754 	-44.431
2.47994 	-44.4274
2.48234 	-44.4237
2.48474 	-44.4199
2.48713 	-44.4162
2.48953 	-44.4124
2.49193 	-44.4087
2.49433 	-44.4049
2.49673 	-44.4011
2.49912 	-44.3972
2.50152 	-44.3934
2.50392 	-44.3895
2.50632 	-44.3857
2.50872 	-44.3818
2.51111 	-44.3779
2.51351 	-44.3739
2.51591 	-44.37
2.51831 	-44.366
2.52071 	-44.362
2.5231 	-44.358
2.5255 	-44.354
2.5279 	-44.3499
2.5303 	-44.3459
2.5327 	-44.3418
2.53509 	-44.3377
2.53749 	-44.3336
2.53989 	-44.3294
2.54229 	-44.3253
2.54469 	-44.3211
2.54708 	-44.3169
2.54948 	-44.3127
2.55188 	-44.3085
2.55428 	-44.3042
2.55668 	-44.3
2.55907 	-44.2957
2.56147 	-44.2914
2.56387 	-44.287
2.56627 	-44.2827
2.56867 	-44.2783
2.57106 	-44.2739
2.57346 	-44.2695
2.57586 	-44.2651
2.57826 	-44.2606
2.58066 	-44.2562
2.58305 	-44.2517
2.58545 	-44.2472
2.58785 	-44.2427
2.59025 	-44.2381
2.59265 	-44.2335
2.59504 	-44.2289
2.59744 	-44.2243
2.59984 	-44.2197
2.60224 	-44.2151
2.60464 	-44.2104
2.60703 	-44.2057
2.60943 	-44.201
2.61183 	-44.1963
2.61423 	-44.1915
2.61663 	-44.1867
2.61902 	-44.1819
2.62142 	-44.1771
2.62382 	-44.1723
2.62622 	-44.1674
