# Mass = 0.0473265 Mev*(hbarc)^2/2 
# R = 4.82059 fm 
# a = 0.662 fm 
# V0 = 56.2183 MeV 
# RSO = 4.438 fm 
# aSO = 0.662 fm 
# VSO = 28.772 MeV fm^2
# l = 2 
# two_j = 5 
# two_t = 1 
# Energy = -18.8507 MeV
# r 	 V_eff [2m/hbar/hbar]
0.01 	1.26774e+06
0.012398 	824742
0.014796 	579058
0.017194 	428790
0.019592 	330238
0.02199 	262131
0.024388 	213107
0.026786 	176651
0.029184 	148806
0.031582 	127060
0.03398 	109753
0.036378 	95754.4
0.038776 	84271.7
0.041174 	74736.3
0.043572 	66731.5
0.04597 	59946.5
0.048368 	54145.3
0.050766 	49146.7
0.053164 	44809
0.055562 	41020.8
0.05796 	37693
0.060358 	34753.9
0.062756 	32145.3
0.065154 	29819.3
0.067552 	27736.6
0.06995 	25864.4
0.072348 	24175.3
0.074746 	22646.1
0.077144 	21257.3
0.079542 	19992.3
0.08194 	18836.6
0.084338 	17778.1
0.086736 	16806.2
0.089134 	15911.7
0.091532 	15086.5
0.09393 	14323.8
0.096328 	13617.3
0.098726 	12961.6
0.101124 	12352
0.103522 	11784.3
0.10592 	11254.8
0.108318 	10760
0.110716 	10297
0.113114 	9863.11
0.115512 	9455.98
0.11791 	9073.45
0.120308 	8713.56
0.122706 	8374.56
0.125104 	8054.87
0.127502 	7753.05
0.1299 	7467.78
0.132298 	7197.89
0.134696 	6942.29
0.137094 	6699.98
0.139492 	6470.06
0.14189 	6251.69
0.144288 	6044.13
0.146686 	5846.66
0.149084 	5658.64
0.151482 	5479.48
0.15388 	5308.63
0.156278 	5145.59
0.158676 	4989.88
0.161074 	4841.08
0.163472 	4698.77
0.16587 	4562.59
0.168268 	4432.19
0.170666 	4307.26
0.173064 	4187.47
0.175462 	4072.57
0.17786 	3962.28
0.180258 	3856.37
0.182656 	3754.59
0.185054 	3656.75
0.187452 	3562.64
0.18985 	3472.08
0.192248 	3384.88
0.194646 	3300.88
0.197044 	3219.93
0.199442 	3141.89
0.20184 	3066.61
0.204238 	2993.96
0.206636 	2923.83
0.209034 	2856.1
0.211432 	2790.67
0.21383 	2727.42
0.216228 	2666.26
0.218626 	2607.1
0.221024 	2549.86
0.223422 	2494.46
0.22582 	2440.81
0.228218 	2388.84
0.230616 	2338.48
0.233014 	2289.67
0.235412 	2242.34
0.23781 	2196.44
0.240208 	2151.91
0.242606 	2108.69
0.245004 	2066.73
0.247402 	2025.99
0.2498 	1986.42
0.252198 	1947.97
0.254596 	1910.6
0.256994 	1874.27
0.259392 	1838.94
0.26179 	1804.58
0.264188 	1771.15
0.266586 	1738.62
0.268984 	1706.96
0.271382 	1676.13
0.27378 	1646.11
0.276178 	1616.87
0.278576 	1588.38
0.280974 	1560.61
0.283372 	1533.55
0.28577 	1507.17
0.288168 	1481.44
0.290566 	1456.34
0.292964 	1431.86
0.295362 	1407.98
0.29776 	1384.66
0.300158 	1361.91
0.302556 	1339.69
0.304954 	1318
0.307352 	1296.81
0.30975 	1276.11
0.312148 	1255.89
0.314546 	1236.13
0.316944 	1216.81
0.319342 	1197.93
0.32174 	1179.47
0.324138 	1161.41
0.326536 	1143.76
0.328934 	1126.48
0.331332 	1109.59
0.33373 	1093.05
0.336128 	1076.87
0.338526 	1061.03
0.340924 	1045.52
0.343322 	1030.34
0.34572 	1015.47
0.348118 	1000.91
0.350516 	986.642
0.352914 	972.668
0.355312 	958.975
0.35771 	945.557
0.360108 	932.406
0.362506 	919.515
0.364904 	906.877
0.367302 	894.487
0.3697 	882.336
0.372098 	870.42
0.374496 	858.732
0.376894 	847.266
0.379292 	836.017
0.38169 	824.979
0.384088 	814.147
0.386486 	803.517
0.388884 	793.082
0.391282 	782.839
0.39368 	772.782
0.396078 	762.908
0.398476 	753.211
0.400874 	743.688
0.403272 	734.334
0.40567 	725.145
0.408068 	716.118
0.410466 	707.249
0.412864 	698.534
0.415262 	689.969
0.41766 	681.551
0.420058 	673.277
0.422456 	665.144
0.424854 	657.148
0.427252 	649.286
0.42965 	641.556
0.432048 	633.954
0.434446 	626.477
0.436844 	619.123
0.439242 	611.89
0.44164 	604.773
0.444038 	597.772
0.446436 	590.884
0.448834 	584.105
0.451232 	577.434
0.45363 	570.869
0.456028 	564.407
0.458426 	558.046
0.460824 	551.784
0.463222 	545.619
0.46562 	539.549
0.468018 	533.573
0.470416 	527.687
0.472814 	521.891
0.475212 	516.182
0.47761 	510.559
0.480008 	505.02
0.482406 	499.564
0.484804 	494.188
0.487202 	488.891
0.4896 	483.672
0.491998 	478.529
0.494396 	473.461
0.496794 	468.466
0.499192 	463.543
0.50159 	458.69
0.503988 	453.907
0.506386 	449.191
0.508784 	444.542
0.511182 	439.957
0.51358 	435.437
0.515978 	430.98
0.518376 	426.585
0.520774 	422.25
0.523172 	417.975
0.52557 	413.758
0.527968 	409.598
0.530366 	405.495
0.532764 	401.447
0.535162 	397.453
0.53756 	393.512
0.539958 	389.624
0.542356 	385.788
0.544754 	382.002
0.547152 	378.265
0.54955 	374.577
0.551948 	370.938
0.554346 	367.345
0.556744 	363.799
0.559142 	360.298
0.56154 	356.842
0.563938 	353.43
0.566336 	350.062
0.568734 	346.735
0.571132 	343.451
0.57353 	340.208
0.575928 	337.005
0.578326 	333.842
0.580724 	330.718
0.583122 	327.632
0.58552 	324.585
0.587918 	321.574
0.590316 	318.6
0.592714 	315.662
0.595112 	312.76
0.59751 	309.892
0.599908 	307.059
0.602306 	304.259
0.604704 	301.493
0.607102 	298.76
0.6095 	296.058
0.611898 	293.389
0.614296 	290.75
0.616694 	288.142
0.619092 	285.565
0.62149 	283.017
0.623888 	280.499
0.626286 	278.009
0.628684 	275.548
0.631082 	273.115
0.63348 	270.709
0.635878 	268.331
0.638276 	265.979
0.640674 	263.654
0.643072 	261.355
0.64547 	259.081
0.647868 	256.832
0.650266 	254.609
0.652664 	252.409
0.655062 	250.234
0.65746 	248.083
0.659858 	245.955
0.662256 	243.85
0.664654 	241.768
0.667052 	239.708
0.66945 	237.67
0.671848 	235.654
0.674246 	233.66
0.676644 	231.687
0.679042 	229.734
0.68144 	227.802
0.683838 	225.891
0.686236 	223.999
0.688634 	222.127
0.691032 	220.275
0.69343 	218.442
0.695828 	216.627
0.698226 	214.832
0.700624 	213.055
0.703022 	211.295
0.70542 	209.554
0.707818 	207.831
0.710216 	206.125
0.712614 	204.436
0.715012 	202.764
0.71741 	201.109
0.719808 	199.47
0.722206 	197.847
0.724604 	196.241
0.727002 	194.651
0.7294 	193.076
0.731798 	191.516
0.734196 	189.972
0.736594 	188.443
0.738992 	186.929
0.74139 	185.429
0.743788 	183.944
0.746186 	182.474
0.748584 	181.017
0.750982 	179.574
0.75338 	178.145
0.755778 	176.73
0.758176 	175.328
0.760574 	173.939
0.762972 	172.563
0.76537 	171.2
0.767768 	169.85
0.770166 	168.513
0.772564 	167.188
0.774962 	165.875
0.77736 	164.574
0.779758 	163.286
0.782156 	162.009
0.784554 	160.744
0.786952 	159.49
0.78935 	158.248
0.791748 	157.017
0.794146 	155.797
0.796544 	154.588
0.798942 	153.39
0.80134 	152.203
0.803738 	151.027
0.806136 	149.86
0.808534 	148.705
0.810932 	147.559
0.81333 	146.424
0.815728 	145.298
0.818126 	144.183
0.820524 	143.077
0.822922 	141.981
0.82532 	140.894
0.827718 	139.817
0.830116 	138.749
0.832514 	137.69
0.834912 	136.641
0.83731 	135.6
0.839708 	134.569
0.842106 	133.546
0.844504 	132.532
0.846902 	131.526
0.8493 	130.529
0.851698 	129.54
0.854096 	128.56
0.856494 	127.588
0.858892 	126.624
0.86129 	125.668
0.863688 	124.72
0.866086 	123.78
0.868484 	122.847
0.870882 	121.922
0.87328 	121.005
0.875678 	120.096
0.878076 	119.194
0.880474 	118.299
0.882872 	117.411
0.88527 	116.531
0.887668 	115.658
0.890066 	114.792
0.892464 	113.932
0.894862 	113.08
0.89726 	112.235
0.899658 	111.396
0.902056 	110.564
0.904454 	109.738
0.906852 	108.92
0.90925 	108.107
0.911648 	107.301
0.914046 	106.501
0.916444 	105.708
0.918842 	104.921
0.92124 	104.14
0.923638 	103.364
0.926036 	102.595
0.928434 	101.832
0.930832 	101.075
0.93323 	100.324
0.935628 	99.5782
0.938026 	98.8383
0.940424 	98.104
0.942822 	97.3753
0.94522 	96.6522
0.947618 	95.9346
0.950016 	95.2223
0.952414 	94.5155
0.954812 	93.8139
0.95721 	93.1176
0.959608 	92.4266
0.962006 	91.7406
0.964404 	91.0598
0.966802 	90.3841
0.9692 	89.7133
0.971598 	89.0475
0.973996 	88.3866
0.976394 	87.7306
0.978792 	87.0794
0.98119 	86.4329
0.983588 	85.7912
0.985986 	85.1541
0.988384 	84.5217
0.990782 	83.8938
0.99318 	83.2705
0.995578 	82.6517
0.997976 	82.0373
1.00037 	81.4274
1.00277 	80.8218
1.00517 	80.2205
1.00757 	79.6235
1.00997 	79.0308
1.01236 	78.4422
1.01476 	77.8579
1.01716 	77.2776
1.01956 	76.7014
1.02196 	76.1293
1.02435 	75.5612
1.02675 	74.9971
1.02915 	74.4368
1.03155 	73.8805
1.03395 	73.3281
1.03634 	72.7795
1.03874 	72.2346
1.04114 	71.6936
1.04354 	71.1562
1.04594 	70.6226
1.04833 	70.0925
1.05073 	69.5662
1.05313 	69.0434
1.05553 	68.5241
1.05793 	68.0084
1.06032 	67.4962
1.06272 	66.9874
1.06512 	66.482
1.06752 	65.9801
1.06992 	65.4815
1.07231 	64.9863
1.07471 	64.4943
1.07711 	64.0057
1.07951 	63.5203
1.08191 	63.0381
1.0843 	62.5591
1.0867 	62.0832
1.0891 	61.6105
1.0915 	61.141
1.0939 	60.6745
1.09629 	60.211
1.09869 	59.7506
1.10109 	59.2931
1.10349 	58.8387
1.10589 	58.3872
1.10828 	57.9386
1.11068 	57.4929
1.11308 	57.0501
1.11548 	56.6102
1.11788 	56.173
1.12027 	55.7387
1.12267 	55.3072
1.12507 	54.8783
1.12747 	54.4523
1.12987 	54.0289
1.13226 	53.6082
1.13466 	53.1902
1.13706 	52.7748
1.13946 	52.362
1.14186 	51.9519
1.14425 	51.5443
1.14665 	51.1392
1.14905 	50.7367
1.15145 	50.3367
1.15385 	49.9392
1.15624 	49.5441
1.15864 	49.1515
1.16104 	48.7613
1.16344 	48.3735
1.16584 	47.9881
1.16823 	47.6051
1.17063 	47.2244
1.17303 	46.8461
1.17543 	46.47
1.17783 	46.0963
1.18022 	45.7248
1.18262 	45.3556
1.18502 	44.9886
1.18742 	44.6238
1.18982 	44.2613
1.19221 	43.9009
1.19461 	43.5427
1.19701 	43.1866
1.19941 	42.8326
1.20181 	42.4808
1.2042 	42.1311
1.2066 	41.7834
1.209 	41.4378
1.2114 	41.0943
1.2138 	40.7528
1.21619 	40.4133
1.21859 	40.0758
1.22099 	39.7403
1.22339 	39.4067
1.22579 	39.0751
1.22818 	38.7455
1.23058 	38.4177
1.23298 	38.0919
1.23538 	37.7679
1.23778 	37.4459
1.24017 	37.1257
1.24257 	36.8073
1.24497 	36.4908
1.24737 	36.1761
1.24977 	35.8632
1.25216 	35.5522
1.25456 	35.2428
1.25696 	34.9353
1.25936 	34.6295
1.26176 	34.3254
1.26415 	34.0231
1.26655 	33.7225
1.26895 	33.4236
1.27135 	33.1263
1.27375 	32.8308
1.27614 	32.5369
1.27854 	32.2446
1.28094 	31.954
1.28334 	31.665
1.28574 	31.3776
1.28813 	31.0919
1.29053 	30.8077
1.29293 	30.5251
1.29533 	30.244
1.29773 	29.9645
1.30012 	29.6866
1.30252 	29.4102
1.30492 	29.1353
1.30732 	28.8619
1.30972 	28.59
1.31211 	28.3196
1.31451 	28.0507
1.31691 	27.7832
1.31931 	27.5172
1.32171 	27.2526
1.3241 	26.9895
1.3265 	26.7278
1.3289 	26.4675
1.3313 	26.2086
1.3337 	25.9511
1.33609 	25.695
1.33849 	25.4402
1.34089 	25.1868
1.34329 	24.9348
1.34569 	24.6841
1.34808 	24.4348
1.35048 	24.1867
1.35288 	23.94
1.35528 	23.6946
1.35768 	23.4505
1.36007 	23.2077
1.36247 	22.9662
1.36487 	22.7259
1.36727 	22.4869
1.36967 	22.2491
1.37206 	22.0126
1.37446 	21.7773
1.37686 	21.5432
1.37926 	21.3104
1.38166 	21.0788
1.38405 	20.8483
1.38645 	20.6191
1.38885 	20.391
1.39125 	20.1642
1.39365 	19.9385
1.39604 	19.7139
1.39844 	19.4905
1.40084 	19.2683
1.40324 	19.0471
1.40564 	18.8272
1.40803 	18.6083
1.41043 	18.3905
1.41283 	18.1739
1.41523 	17.9583
1.41763 	17.7439
1.42002 	17.5305
1.42242 	17.3182
1.42482 	17.107
1.42722 	16.8968
1.42962 	16.6877
1.43201 	16.4796
1.43441 	16.2726
1.43681 	16.0666
1.43921 	15.8616
1.44161 	15.6577
1.444 	15.4547
1.4464 	15.2528
1.4488 	15.0519
1.4512 	14.852
1.4536 	14.653
1.45599 	14.4551
1.45839 	14.2581
1.46079 	14.062
1.46319 	13.867
1.46559 	13.6729
1.46798 	13.4797
1.47038 	13.2875
1.47278 	13.0962
1.47518 	12.9059
1.47758 	12.7165
1.47997 	12.5279
1.48237 	12.3404
1.48477 	12.1537
1.48717 	11.9679
1.48957 	11.783
1.49196 	11.599
1.49436 	11.4159
1.49676 	11.2336
1.49916 	11.0523
1.50156 	10.8718
1.50395 	10.6921
1.50635 	10.5134
1.50875 	10.3354
1.51115 	10.1583
1.51355 	9.98209
1.51594 	9.80667
1.51834 	9.63209
1.52074 	9.45833
1.52314 	9.28539
1.52554 	9.11327
1.52793 	8.94195
1.53033 	8.77143
1.53273 	8.60172
1.53513 	8.4328
1.53753 	8.26466
1.53992 	8.09731
1.54232 	7.93074
1.54472 	7.76495
1.54712 	7.59992
1.54952 	7.43566
1.55191 	7.27216
1.55431 	7.10941
1.55671 	6.94742
1.55911 	6.78617
1.56151 	6.62566
1.5639 	6.46589
1.5663 	6.30685
1.5687 	6.14854
1.5711 	5.99095
1.5735 	5.83408
1.57589 	5.67793
1.57829 	5.52249
1.58069 	5.36775
1.58309 	5.21372
1.58549 	5.06038
1.58788 	4.90774
1.59028 	4.75578
1.59268 	4.60451
1.59508 	4.45393
1.59748 	4.30402
1.59987 	4.15478
1.60227 	4.00622
1.60467 	3.85831
1.60707 	3.71107
1.60947 	3.56449
1.61186 	3.41856
1.61426 	3.27328
1.61666 	3.12864
1.61906 	2.98465
1.62146 	2.8413
1.62385 	2.69858
1.62625 	2.55649
1.62865 	2.41503
1.63105 	2.27419
1.63345 	2.13397
1.63584 	1.99437
1.63824 	1.85537
1.64064 	1.71699
1.64304 	1.57922
1.64544 	1.44204
1.64783 	1.30547
1.65023 	1.16949
1.65263 	1.0341
1.65503 	0.899299
1.65743 	0.765083
1.65982 	0.631449
1.66222 	0.498393
1.66462 	0.365912
1.66702 	0.234003
1.66942 	0.102662
1.67181 	-0.0281142
1.67421 	-0.158328
1.67661 	-0.287983
1.67901 	-0.417083
1.68141 	-0.54563
1.6838 	-0.673628
1.6862 	-0.80108
1.6886 	-0.927989
1.691 	-1.05436
1.6934 	-1.18019
1.69579 	-1.30549
1.69819 	-1.43025
1.70059 	-1.55449
1.70299 	-1.6782
1.70539 	-1.80139
1.70778 	-1.92407
1.71018 	-2.04622
1.71258 	-2.16786
1.71498 	-2.28899
1.71738 	-2.40961
1.71977 	-2.52973
1.72217 	-2.64935
1.72457 	-2.76846
1.72697 	-2.88708
1.72937 	-3.00521
1.73176 	-3.12284
1.73416 	-3.23998
1.73656 	-3.35664
1.73896 	-3.47282
1.74136 	-3.58851
1.74375 	-3.70373
1.74615 	-3.81847
1.74855 	-3.93273
1.75095 	-4.04653
1.75335 	-4.15986
1.75574 	-4.27272
1.75814 	-4.38512
1.76054 	-4.49706
1.76294 	-4.60854
1.76534 	-4.71957
1.76773 	-4.83014
1.77013 	-4.94027
1.77253 	-5.04994
1.77493 	-5.15917
1.77733 	-5.26796
1.77972 	-5.3763
1.78212 	-5.48421
1.78452 	-5.59167
1.78692 	-5.69871
1.78932 	-5.80531
1.79171 	-5.91149
1.79411 	-6.01723
1.79651 	-6.12255
1.79891 	-6.22745
1.80131 	-6.33193
1.8037 	-6.43599
1.8061 	-6.53963
1.8085 	-6.64286
1.8109 	-6.74567
1.8133 	-6.84808
1.81569 	-6.95008
1.81809 	-7.05167
1.82049 	-7.15286
1.82289 	-7.25365
1.82529 	-7.35404
1.82768 	-7.45403
1.83008 	-7.55363
1.83248 	-7.65284
1.83488 	-7.75165
1.83728 	-7.85007
1.83967 	-7.94811
1.84207 	-8.04576
1.84447 	-8.14303
1.84687 	-8.23991
1.84927 	-8.33642
1.85166 	-8.43255
1.85406 	-8.52831
1.85646 	-8.62369
1.85886 	-8.7187
1.86126 	-8.81333
1.86365 	-8.90761
1.86605 	-9.00151
1.86845 	-9.09505
1.87085 	-9.18823
1.87325 	-9.28105
1.87564 	-9.37351
1.87804 	-9.46561
1.88044 	-9.55735
1.88284 	-9.64875
1.88524 	-9.73979
1.88763 	-9.83048
1.89003 	-9.92082
1.89243 	-10.0108
1.89483 	-10.1005
1.89723 	-10.1898
1.89962 	-10.2787
1.90202 	-10.3674
1.90442 	-10.4557
1.90682 	-10.5436
1.90922 	-10.6312
1.91161 	-10.7185
1.91401 	-10.8055
1.91641 	-10.8921
1.91881 	-10.9784
1.92121 	-11.0644
1.9236 	-11.15
1.926 	-11.2353
1.9284 	-11.3203
1.9308 	-11.405
1.9332 	-11.4893
1.93559 	-11.5734
1.93799 	-11.6571
1.94039 	-11.7405
1.94279 	-11.8236
1.94519 	-11.9064
1.94758 	-11.9889
1.94998 	-12.0711
1.95238 	-12.1529
1.95478 	-12.2345
1.95718 	-12.3157
1.95957 	-12.3967
1.96197 	-12.4773
1.96437 	-12.5577
1.96677 	-12.6377
1.96917 	-12.7175
1.97156 	-12.7969
1.97396 	-12.8761
1.97636 	-12.955
1.97876 	-13.0335
1.98116 	-13.1118
1.98355 	-13.1898
1.98595 	-13.2675
1.98835 	-13.345
1.99075 	-13.4221
1.99315 	-13.499
1.99554 	-13.5755
1.99794 	-13.6518
2.00034 	-13.7278
2.00274 	-13.8036
2.00514 	-13.879
2.00753 	-13.9542
2.00993 	-14.0291
2.01233 	-14.1038
2.01473 	-14.1782
2.01713 	-14.2522
2.01952 	-14.3261
2.02192 	-14.3996
2.02432 	-14.4729
2.02672 	-14.5459
2.02912 	-14.6187
2.03151 	-14.6912
2.03391 	-14.7634
2.03631 	-14.8354
2.03871 	-14.9071
2.04111 	-14.9786
2.0435 	-15.0498
2.0459 	-15.1207
2.0483 	-15.1914
2.0507 	-15.2619
2.0531 	-15.332
2.05549 	-15.402
2.05789 	-15.4716
2.06029 	-15.5411
2.06269 	-15.6102
2.06509 	-15.6792
2.06748 	-15.7479
2.06988 	-15.8163
2.07228 	-15.8845
2.07468 	-15.9525
2.07708 	-16.0202
2.07947 	-16.0876
2.08187 	-16.1549
2.08427 	-16.2219
2.08667 	-16.2886
2.08907 	-16.3551
2.09146 	-16.4214
2.09386 	-16.4875
2.09626 	-16.5533
2.09866 	-16.6189
2.10106 	-16.6842
2.10345 	-16.7493
2.10585 	-16.8142
2.10825 	-16.8789
2.11065 	-16.9433
2.11305 	-17.0075
2.11544 	-17.0715
2.11784 	-17.1353
2.12024 	-17.1988
2.12264 	-17.2621
2.12504 	-17.3252
2.12743 	-17.388
2.12983 	-17.4507
2.13223 	-17.5131
2.13463 	-17.5753
2.13703 	-17.6373
2.13942 	-17.6991
2.14182 	-17.7607
2.14422 	-17.822
2.14662 	-17.8831
2.14902 	-17.944
2.15141 	-18.0047
2.15381 	-18.0652
2.15621 	-18.1255
2.15861 	-18.1856
2.16101 	-18.2455
2.1634 	-18.3051
2.1658 	-18.3646
2.1682 	-18.4238
2.1706 	-18.4829
2.173 	-18.5417
2.17539 	-18.6003
2.17779 	-18.6588
2.18019 	-18.717
2.18259 	-18.775
2.18499 	-18.8328
2.18738 	-18.8905
2.18978 	-18.9479
2.19218 	-19.0051
2.19458 	-19.0622
2.19698 	-19.119
2.19937 	-19.1756
2.20177 	-19.2321
2.20417 	-19.2884
2.20657 	-19.3444
2.20897 	-19.4003
2.21136 	-19.456
2.21376 	-19.5114
2.21616 	-19.5667
2.21856 	-19.6219
2.22096 	-19.6768
2.22335 	-19.7315
2.22575 	-19.786
2.22815 	-19.8404
2.23055 	-19.8946
2.23295 	-19.9486
2.23534 	-20.0024
2.23774 	-20.056
2.24014 	-20.1094
2.24254 	-20.1627
2.24494 	-20.2158
2.24733 	-20.2686
2.24973 	-20.3214
2.25213 	-20.3739
2.25453 	-20.4262
2.25693 	-20.4784
2.25932 	-20.5304
2.26172 	-20.5822
2.26412 	-20.6339
2.26652 	-20.6854
2.26892 	-20.7367
2.27131 	-20.7878
2.27371 	-20.8387
2.27611 	-20.8895
2.27851 	-20.9401
2.28091 	-20.9906
2.2833 	-21.0408
2.2857 	-21.0909
2.2881 	-21.1408
2.2905 	-21.1906
2.2929 	-21.2402
2.29529 	-21.2896
2.29769 	-21.3389
2.30009 	-21.388
2.30249 	-21.4369
2.30489 	-21.4856
2.30728 	-21.5342
2.30968 	-21.5827
2.31208 	-21.6309
2.31448 	-21.679
2.31688 	-21.727
2.31927 	-21.7747
2.32167 	-21.8224
2.32407 	-21.8698
2.32647 	-21.9171
2.32887 	-21.9643
2.33126 	-22.0112
2.33366 	-22.0581
2.33606 	-22.1047
2.33846 	-22.1512
2.34086 	-22.1976
2.34325 	-22.2438
2.34565 	-22.2898
2.34805 	-22.3357
2.35045 	-22.3814
2.35285 	-22.427
2.35524 	-22.4724
2.35764 	-22.5177
2.36004 	-22.5628
2.36244 	-22.6078
2.36484 	-22.6526
2.36723 	-22.6973
2.36963 	-22.7418
2.37203 	-22.7862
2.37443 	-22.8304
2.37683 	-22.8744
2.37922 	-22.9184
2.38162 	-22.9621
2.38402 	-23.0058
2.38642 	-23.0493
2.38882 	-23.0926
2.39121 	-23.1358
2.39361 	-23.1788
2.39601 	-23.2217
2.39841 	-23.2645
2.40081 	-23.3071
2.4032 	-23.3496
2.4056 	-23.3919
2.408 	-23.4341
2.4104 	-23.4761
2.4128 	-23.518
2.41519 	-23.5598
2.41759 	-23.6014
2.41999 	-23.6429
2.42239 	-23.6842
2.42479 	-23.7254
2.42718 	-23.7665
2.42958 	-23.8074
2.43198 	-23.8482
2.43438 	-23.8888
2.43678 	-23.9294
2.43917 	-23.9697
2.44157 	-24.01
2.44397 	-24.0501
2.44637 	-24.0901
2.44877 	-24.1299
2.45116 	-24.1696
2.45356 	-24.2092
2.45596 	-24.2486
2.45836 	-24.2879
2.46076 	-24.3271
2.46315 	-24.3661
2.46555 	-24.405
2.46795 	-24.4438
2.47035 	-24.4825
2.47275 	-24.521
2.47514 	-24.5594
2.47754 	-24.5976
2.47994 	-24.6357
2.48234 	-24.6737
2.48474 	-24.7116
2.48713 	-24.7493
2.48953 	-24.787
2.49193 	-24.8244
2.49433 	-24.8618
2.49673 	-24.899
2.49912 	-24.9361
2.50152 	-24.9731
2.50392 	-25.01
2.50632 	-25.0467
2.50872 	-25.0833
2.51111 	-25.1198
2.51351 	-25.1562
2.51591 	-25.1924
2.51831 	-25.2285
2.52071 	-25.2645
2.5231 	-25.3004
2.5255 	-25.3361
2.5279 	-25.3717
2.5303 	-25.4072
2.5327 	-25.4426
2.53509 	-25.4778
2.53749 	-25.513
2.53989 	-25.548
2.54229 	-25.5829
2.54469 	-25.6177
2.54708 	-25.6523
2.54948 	-25.6869
2.55188 	-25.7213
2.55428 	-25.7556
2.55668 	-25.7898
2.55907 	-25.8238
2.56147 	-25.8578
2.56387 	-25.8916
2.56627 	-25.9253
2.56867 	-25.9589
2.57106 	-25.9924
2.57346 	-26.0258
2.57586 	-26.0591
2.57826 	-26.0922
2.58066 	-26.1252
2.58305 	-26.1581
2.58545 	-26.1909
2.58785 	-26.2236
2.59025 	-26.2562
2.59265 	-26.2886
2.59504 	-26.321
2.59744 	-26.3532
2.59984 	-26.3853
2.60224 	-26.4173
2.60464 	-26.4492
2.60703 	-26.481
2.60943 	-26.5126
2.61183 	-26.5442
2.61423 	-26.5757
2.61663 	-26.607
2.61902 	-26.6382
2.62142 	-26.6693
2.62382 	-26.7003
2.62622 	-26.7312
2.62862 	-26.762
2.63101 	-26.7927
2.63341 	-26.8233
2.63581 	-26.8537
2.63821 	-26.8841
2.64061 	-26.9144
2.643 	-26.9445
2.6454 	-26.9745
2.6478 	-27.0044
2.6502 	-27.0343
2.6526 	-27.064
2.65499 	-27.0936
2.65739 	-27.1231
2.65979 	-27.1525
2.66219 	-27.1818
2.66459 	-27.211
2.66698 	-27.24
2.66938 	-27.269
2.67178 	-27.2979
2.67418 	-27.3266
2.67658 	-27.3553
2.67897 	-27.3839
2.68137 	-27.4123
2.68377 	-27.4407
2.68617 	-27.4689
2.68857 	-27.497
2.69096 	-27.5251
2.69336 	-27.553
2.69576 	-27.5809
2.69816 	-27.6086
2.70056 	-27.6362
2.70295 	-27.6638
2.70535 	-27.6912
2.70775 	-27.7185
2.71015 	-27.7457
2.71255 	-27.7729
2.71494 	-27.7999
