# Mass = 0.0480256 Mev*(hbarc)^2/2 
# R = 7.46549 fm 
# a = 0.662 fm 
# V0 = 45.1828 MeV 
# RSO = 6.87299 fm 
# aSO = 0.662 fm 
# VSO = 27.9403 MeV fm^2
# l = 3 
# two_j = 5 
# two_t = -1 
# Energy = -25.1191 MeV
# r 	 V_eff [2m/hbar/hbar]
0.01 	2.49862e+06
0.012398 	1.62552e+06
0.014796 	1.14131e+06
0.017194 	845145
0.019592 	650909
0.02199 	516678
0.024388 	420058
0.026786 	348206
0.029184 	293327
0.031582 	250467
0.03398 	216357
0.036378 	188767
0.038776 	166136
0.041174 	147343
0.043572 	131566
0.04597 	118193
0.048368 	106760
0.050766 	96908.1
0.053164 	88359
0.055562 	80892.8
0.05796 	74334
0.060358 	68541.3
0.062756 	63399.9
0.065154 	58815.6
0.067552 	54710.9
0.06995 	51021
0.072348 	47691.8
0.074746 	44678
0.077144 	41940.8
0.079542 	39447.4
0.08194 	37169.7
0.084338 	35083.5
0.086736 	33167.9
0.089134 	31404.9
0.091532 	29778.6
0.09393 	28275.3
0.096328 	26882.8
0.098726 	25590.5
0.101124 	24389.1
0.103522 	23270.2
0.10592 	22226.5
0.108318 	21251.3
0.110716 	20338.7
0.113114 	19483.6
0.115512 	18681.2
0.11791 	17927.3
0.120308 	17218
0.122706 	16549.8
0.125104 	15919.7
0.127502 	15324.8
0.1299 	14762.6
0.132298 	14230.7
0.134696 	13726.9
0.137094 	13249.3
0.139492 	12796.2
0.14189 	12365.8
0.144288 	11956.7
0.146686 	11567.5
0.149084 	11196.9
0.151482 	10843.8
0.15388 	10507.1
0.156278 	10185.7
0.158676 	9878.81
0.161074 	9585.52
0.163472 	9305.05
0.16587 	9036.65
0.168268 	8779.64
0.170666 	8533.39
0.173064 	8297.31
0.175462 	8070.84
0.17786 	7853.46
0.180258 	7644.71
0.182656 	7444.12
0.185054 	7251.28
0.187452 	7065.79
0.18985 	6887.29
0.192248 	6715.42
0.194646 	6549.87
0.197044 	6390.33
0.199442 	6236.5
0.20184 	6088.13
0.204238 	5944.95
0.206636 	5806.72
0.209034 	5673.23
0.211432 	5544.25
0.21383 	5419.59
0.216228 	5299.05
0.218626 	5182.46
0.221024 	5069.64
0.223422 	4960.44
0.22582 	4854.69
0.228218 	4752.26
0.230616 	4653.01
0.233014 	4556.81
0.235412 	4463.53
0.23781 	4373.06
0.240208 	4285.28
0.242606 	4200.1
0.245004 	4117.41
0.247402 	4037.1
0.2498 	3959.1
0.252198 	3883.32
0.254596 	3809.66
0.256994 	3738.06
0.259392 	3668.43
0.26179 	3600.71
0.264188 	3534.82
0.266586 	3470.71
0.268984 	3408.3
0.271382 	3347.54
0.27378 	3288.36
0.276178 	3230.73
0.278576 	3174.57
0.280974 	3119.85
0.283372 	3066.51
0.28577 	3014.5
0.288168 	2963.79
0.290566 	2914.33
0.292964 	2866.08
0.295362 	2819
0.29776 	2773.05
0.300158 	2728.2
0.302556 	2684.42
0.304954 	2641.66
0.307352 	2599.89
0.30975 	2559.1
0.312148 	2519.24
0.314546 	2480.29
0.316944 	2442.22
0.319342 	2405
0.32174 	2368.61
0.324138 	2333.03
0.326536 	2298.23
0.328934 	2264.19
0.331332 	2230.88
0.33373 	2198.29
0.336128 	2166.39
0.338526 	2135.17
0.340924 	2104.61
0.343322 	2074.68
0.34572 	2045.37
0.348118 	2016.67
0.350516 	1988.56
0.352914 	1961.01
0.355312 	1934.02
0.35771 	1907.58
0.360108 	1881.66
0.362506 	1856.25
0.364904 	1831.34
0.367302 	1806.92
0.3697 	1782.97
0.372098 	1759.48
0.374496 	1736.44
0.376894 	1713.85
0.379292 	1691.67
0.38169 	1669.92
0.384088 	1648.57
0.386486 	1627.62
0.388884 	1607.05
0.391282 	1586.86
0.39368 	1567.04
0.396078 	1547.58
0.398476 	1528.46
0.400874 	1509.69
0.403272 	1491.26
0.40567 	1473.15
0.408068 	1455.35
0.410466 	1437.87
0.412864 	1420.7
0.415262 	1403.81
0.41766 	1387.22
0.420058 	1370.92
0.422456 	1354.88
0.424854 	1339.12
0.427252 	1323.63
0.42965 	1308.39
0.432048 	1293.41
0.434446 	1278.67
0.436844 	1264.18
0.439242 	1249.92
0.44164 	1235.9
0.444038 	1222.1
0.446436 	1208.52
0.448834 	1195.16
0.451232 	1182.01
0.45363 	1169.07
0.456028 	1156.33
0.458426 	1143.8
0.460824 	1131.45
0.463222 	1119.3
0.46562 	1107.34
0.468018 	1095.56
0.470416 	1083.96
0.472814 	1072.54
0.475212 	1061.28
0.47761 	1050.2
0.480008 	1039.28
0.482406 	1028.53
0.484804 	1017.93
0.487202 	1007.49
0.4896 	997.208
0.491998 	987.071
0.494396 	977.082
0.496794 	967.237
0.499192 	957.534
0.50159 	947.969
0.503988 	938.541
0.506386 	929.246
0.508784 	920.083
0.511182 	911.048
0.51358 	902.139
0.515978 	893.354
0.518376 	884.691
0.520774 	876.147
0.523172 	867.721
0.52557 	859.409
0.527968 	851.211
0.530366 	843.123
0.532764 	835.145
0.535162 	827.273
0.53756 	819.507
0.539958 	811.844
0.542356 	804.282
0.544754 	796.82
0.547152 	789.456
0.54955 	782.188
0.551948 	775.014
0.554346 	767.934
0.556744 	760.944
0.559142 	754.045
0.56154 	747.233
0.563938 	740.509
0.566336 	733.869
0.568734 	727.314
0.571132 	720.841
0.57353 	714.448
0.575928 	708.136
0.578326 	701.902
0.580724 	695.745
0.583122 	689.663
0.58552 	683.657
0.587918 	677.723
0.590316 	671.862
0.592714 	666.072
0.595112 	660.352
0.59751 	654.7
0.599908 	649.116
0.602306 	643.599
0.604704 	638.147
0.607102 	632.759
0.6095 	627.435
0.611898 	622.174
0.614296 	616.974
0.616694 	611.834
0.619092 	606.754
0.62149 	601.733
0.623888 	596.77
0.626286 	591.863
0.628684 	587.013
0.631082 	582.218
0.63348 	577.477
0.635878 	572.79
0.638276 	568.155
0.640674 	563.572
0.643072 	559.041
0.64547 	554.56
0.647868 	550.128
0.650266 	545.746
0.652664 	541.411
0.655062 	537.125
0.65746 	532.885
0.659858 	528.691
0.662256 	524.543
0.664654 	520.439
0.667052 	516.38
0.66945 	512.364
0.671848 	508.391
0.674246 	504.461
0.676644 	500.572
0.679042 	496.724
0.68144 	492.917
0.683838 	489.15
0.686236 	485.422
0.688634 	481.733
0.691032 	478.083
0.69343 	474.47
0.695828 	470.894
0.698226 	467.356
0.700624 	463.853
0.703022 	460.387
0.70542 	456.955
0.707818 	453.559
0.710216 	450.197
0.712614 	446.868
0.715012 	443.574
0.71741 	440.312
0.719808 	437.082
0.722206 	433.885
0.724604 	430.72
0.727002 	427.585
0.7294 	424.482
0.731798 	421.409
0.734196 	418.366
0.736594 	415.353
0.738992 	412.369
0.74139 	409.414
0.743788 	406.488
0.746186 	403.589
0.748584 	400.719
0.750982 	397.876
0.75338 	395.06
0.755778 	392.271
0.758176 	389.508
0.760574 	386.772
0.762972 	384.061
0.76537 	381.375
0.767768 	378.715
0.770166 	376.079
0.772564 	373.468
0.774962 	370.882
0.77736 	368.319
0.779758 	365.779
0.782156 	363.263
0.784554 	360.77
0.786952 	358.3
0.78935 	355.853
0.791748 	353.427
0.794146 	351.024
0.796544 	348.642
0.798942 	346.281
0.80134 	343.942
0.803738 	341.623
0.806136 	339.326
0.808534 	337.048
0.810932 	334.791
0.81333 	332.554
0.815728 	330.337
0.818126 	328.138
0.820524 	325.96
0.822922 	323.8
0.82532 	321.659
0.827718 	319.537
0.830116 	317.432
0.832514 	315.347
0.834912 	313.279
0.83731 	311.228
0.839708 	309.196
0.842106 	307.181
0.844504 	305.182
0.846902 	303.201
0.8493 	301.237
0.851698 	299.289
0.854096 	297.357
0.856494 	295.442
0.858892 	293.543
0.86129 	291.659
0.863688 	289.791
0.866086 	287.939
0.868484 	286.102
0.870882 	284.28
0.87328 	282.474
0.875678 	280.682
0.878076 	278.904
0.880474 	277.141
0.882872 	275.393
0.88527 	273.659
0.887668 	271.938
0.890066 	270.232
0.892464 	268.539
0.894862 	266.86
0.89726 	265.195
0.899658 	263.542
0.902056 	261.903
0.904454 	260.277
0.906852 	258.664
0.90925 	257.063
0.911648 	255.476
0.914046 	253.9
0.916444 	252.337
0.918842 	250.786
0.92124 	249.248
0.923638 	247.721
0.926036 	246.206
0.928434 	244.703
0.930832 	243.211
0.93323 	241.731
0.935628 	240.262
0.938026 	238.805
0.940424 	237.359
0.942822 	235.923
0.94522 	234.499
0.947618 	233.085
0.950016 	231.682
0.952414 	230.29
0.954812 	228.908
0.95721 	227.537
0.959608 	226.175
0.962006 	224.824
0.964404 	223.483
0.966802 	222.152
0.9692 	220.831
0.971598 	219.52
0.973996 	218.218
0.976394 	216.926
0.978792 	215.643
0.98119 	214.37
0.983588 	213.106
0.985986 	211.851
0.988384 	210.606
0.990782 	209.369
0.99318 	208.141
0.995578 	206.923
0.997976 	205.713
1.00037 	204.511
1.00277 	203.319
1.00517 	202.134
1.00757 	200.959
1.00997 	199.791
1.01236 	198.632
1.01476 	197.481
1.01716 	196.339
1.01956 	195.204
1.02196 	194.077
1.02435 	192.958
1.02675 	191.847
1.02915 	190.744
1.03155 	189.649
1.03395 	188.561
1.03634 	187.48
1.03874 	186.408
1.04114 	185.342
1.04354 	184.284
1.04594 	183.233
1.04833 	182.189
1.05073 	181.153
1.05313 	180.123
1.05553 	179.101
1.05793 	178.085
1.06032 	177.077
1.06272 	176.075
1.06512 	175.08
1.06752 	174.091
1.06992 	173.11
1.07231 	172.135
1.07471 	171.166
1.07711 	170.204
1.07951 	169.248
1.08191 	168.299
1.0843 	167.356
1.0867 	166.419
1.0891 	165.488
1.0915 	164.563
1.0939 	163.645
1.09629 	162.732
1.09869 	161.826
1.10109 	160.925
1.10349 	160.031
1.10589 	159.142
1.10828 	158.259
1.11068 	157.381
1.11308 	156.509
1.11548 	155.643
1.11788 	154.783
1.12027 	153.928
1.12267 	153.078
1.12507 	152.234
1.12747 	151.395
1.12987 	150.562
1.13226 	149.733
1.13466 	148.911
1.13706 	148.093
1.13946 	147.28
1.14186 	146.473
1.14425 	145.671
1.14665 	144.873
1.14905 	144.081
1.15145 	143.293
1.15385 	142.511
1.15624 	141.733
1.15864 	140.961
1.16104 	140.192
1.16344 	139.429
1.16584 	138.671
1.16823 	137.917
1.17063 	137.167
1.17303 	136.423
1.17543 	135.683
1.17783 	134.947
1.18022 	134.216
1.18262 	133.489
1.18502 	132.767
1.18742 	132.049
1.18982 	131.335
1.19221 	130.626
1.19461 	129.921
1.19701 	129.22
1.19941 	128.524
1.20181 	127.831
1.2042 	127.143
1.2066 	126.459
1.209 	125.779
1.2114 	125.103
1.2138 	124.431
1.21619 	123.763
1.21859 	123.098
1.22099 	122.438
1.22339 	121.782
1.22579 	121.129
1.22818 	120.481
1.23058 	119.836
1.23298 	119.194
1.23538 	118.557
1.23778 	117.923
1.24017 	117.293
1.24257 	116.667
1.24497 	116.044
1.24737 	115.425
1.24977 	114.809
1.25216 	114.197
1.25456 	113.589
1.25696 	112.983
1.25936 	112.382
1.26176 	111.784
1.26415 	111.189
1.26655 	110.597
1.26895 	110.009
1.27135 	109.424
1.27375 	108.843
1.27614 	108.265
1.27854 	107.69
1.28094 	107.118
1.28334 	106.549
1.28574 	105.984
1.28813 	105.422
1.29053 	104.863
1.29293 	104.307
1.29533 	103.754
1.29773 	103.204
1.30012 	102.657
1.30252 	102.114
1.30492 	101.573
1.30732 	101.035
1.30972 	100.5
1.31211 	99.9684
1.31451 	99.4394
1.31691 	98.9133
1.31931 	98.39
1.32171 	97.8696
1.3241 	97.3521
1.3265 	96.8373
1.3289 	96.3253
1.3313 	95.8161
1.3337 	95.3096
1.33609 	94.8059
1.33849 	94.3049
1.34089 	93.8065
1.34329 	93.3108
1.34569 	92.8178
1.34808 	92.3274
1.35048 	91.8396
1.35288 	91.3544
1.35528 	90.8717
1.35768 	90.3917
1.36007 	89.9141
1.36247 	89.4391
1.36487 	88.9666
1.36727 	88.4966
1.36967 	88.029
1.37206 	87.5639
1.37446 	87.1012
1.37686 	86.6409
1.37926 	86.183
1.38166 	85.7276
1.38405 	85.2744
1.38645 	84.8237
1.38885 	84.3752
1.39125 	83.9291
1.39365 	83.4853
1.39604 	83.0438
1.39844 	82.6045
1.40084 	82.1675
1.40324 	81.7327
1.40564 	81.3002
1.40803 	80.8698
1.41043 	80.4417
1.41283 	80.0157
1.41523 	79.5919
1.41763 	79.1703
1.42002 	78.7507
1.42242 	78.3333
1.42482 	77.918
1.42722 	77.5048
1.42962 	77.0937
1.43201 	76.6847
1.43441 	76.2777
1.43681 	75.8727
1.43921 	75.4697
1.44161 	75.0688
1.444 	74.6699
1.4464 	74.2729
1.4488 	73.8779
1.4512 	73.4849
1.4536 	73.0938
1.45599 	72.7046
1.45839 	72.3174
1.46079 	71.932
1.46319 	71.5486
1.46559 	71.167
1.46798 	70.7874
1.47038 	70.4095
1.47278 	70.0335
1.47518 	69.6594
1.47758 	69.287
1.47997 	68.9165
1.48237 	68.5478
1.48477 	68.1808
1.48717 	67.8157
1.48957 	67.4523
1.49196 	67.0906
1.49436 	66.7307
1.49676 	66.3725
1.49916 	66.016
1.50156 	65.6613
1.50395 	65.3082
1.50635 	64.9568
1.50875 	64.6071
1.51115 	64.2591
1.51355 	63.9127
1.51594 	63.5679
1.51834 	63.2248
1.52074 	62.8833
1.52314 	62.5434
1.52554 	62.2052
1.52793 	61.8685
1.53033 	61.5334
1.53273 	61.1999
1.53513 	60.8679
1.53753 	60.5375
1.53992 	60.2086
1.54232 	59.8812
1.54472 	59.5554
1.54712 	59.2311
1.54952 	58.9083
1.55191 	58.587
1.55431 	58.2672
1.55671 	57.9489
1.55911 	57.632
1.56151 	57.3166
1.5639 	57.0026
1.5663 	56.6901
1.5687 	56.379
1.5711 	56.0694
1.5735 	55.7611
1.57589 	55.4543
1.57829 	55.1488
1.58069 	54.8448
1.58309 	54.5421
1.58549 	54.2408
1.58788 	53.9409
1.59028 	53.6423
1.59268 	53.3451
1.59508 	53.0492
1.59748 	52.7546
1.59987 	52.4614
1.60227 	52.1695
1.60467 	51.8788
1.60707 	51.5895
1.60947 	51.3015
1.61186 	51.0148
1.61426 	50.7293
1.61666 	50.4452
1.61906 	50.1622
1.62146 	49.8806
1.62385 	49.6001
1.62625 	49.321
1.62865 	49.043
1.63105 	48.7663
1.63345 	48.4908
1.63584 	48.2165
1.63824 	47.9434
1.64064 	47.6715
1.64304 	47.4008
1.64544 	47.1313
1.64783 	46.8629
1.65023 	46.5958
1.65263 	46.3298
1.65503 	46.0649
1.65743 	45.8012
1.65982 	45.5386
1.66222 	45.2772
1.66462 	45.0169
1.66702 	44.7578
1.66942 	44.4997
1.67181 	44.2427
1.67421 	43.9869
1.67661 	43.7322
1.67901 	43.4785
1.68141 	43.2259
1.6838 	42.9744
1.6862 	42.724
1.6886 	42.4747
1.691 	42.2264
1.6934 	41.9792
1.69579 	41.733
1.69819 	41.4878
1.70059 	41.2437
1.70299 	41.0006
1.70539 	40.7586
1.70778 	40.5176
1.71018 	40.2775
1.71258 	40.0385
1.71498 	39.8005
1.71738 	39.5635
1.71977 	39.3275
1.72217 	39.0925
1.72457 	38.8584
1.72697 	38.6253
1.72937 	38.3932
1.73176 	38.1621
1.73416 	37.9319
1.73656 	37.7027
1.73896 	37.4744
1.74136 	37.247
1.74375 	37.0206
1.74615 	36.7952
1.74855 	36.5706
1.75095 	36.347
1.75335 	36.1243
1.75574 	35.9025
1.75814 	35.6816
1.76054 	35.4616
1.76294 	35.2425
1.76534 	35.0244
1.76773 	34.8071
1.77013 	34.5906
1.77253 	34.3751
1.77493 	34.1604
1.77733 	33.9466
1.77972 	33.7337
1.78212 	33.5216
1.78452 	33.3104
1.78692 	33.1
1.78932 	32.8905
1.79171 	32.6818
1.79411 	32.474
1.79651 	32.267
1.79891 	32.0608
1.80131 	31.8554
1.8037 	31.6509
1.8061 	31.4471
1.8085 	31.2442
1.8109 	31.0421
1.8133 	30.8408
1.81569 	30.6403
1.81809 	30.4406
1.82049 	30.2416
1.82289 	30.0435
1.82529 	29.8461
1.82768 	29.6496
1.83008 	29.4537
1.83248 	29.2587
1.83488 	29.0644
1.83728 	28.8709
1.83967 	28.6781
1.84207 	28.4861
1.84447 	28.2949
1.84687 	28.1044
1.84927 	27.9146
1.85166 	27.7255
1.85406 	27.5372
1.85646 	27.3497
1.85886 	27.1628
1.86126 	26.9767
1.86365 	26.7913
1.86605 	26.6066
1.86845 	26.4226
1.87085 	26.2394
1.87325 	26.0568
1.87564 	25.8749
1.87804 	25.6938
1.88044 	25.5133
1.88284 	25.3335
1.88524 	25.1544
1.88763 	24.976
1.89003 	24.7982
1.89243 	24.6212
1.89483 	24.4448
1.89723 	24.2691
1.89962 	24.094
1.90202 	23.9196
1.90442 	23.7459
1.90682 	23.5728
1.90922 	23.4004
1.91161 	23.2286
1.91401 	23.0575
1.91641 	22.887
1.91881 	22.7171
1.92121 	22.5479
1.9236 	22.3793
1.926 	22.2114
1.9284 	22.0441
1.9308 	21.8774
1.9332 	21.7113
1.93559 	21.5458
1.93799 	21.381
1.94039 	21.2167
1.94279 	21.0531
1.94519 	20.8901
1.94758 	20.7277
1.94998 	20.5659
1.95238 	20.4046
1.95478 	20.244
1.95718 	20.084
1.95957 	19.9245
1.96197 	19.7657
1.96437 	19.6074
1.96677 	19.4497
1.96917 	19.2925
1.97156 	19.136
1.97396 	18.98
1.97636 	18.8246
1.97876 	18.6697
1.98116 	18.5155
1.98355 	18.3617
1.98595 	18.2086
1.98835 	18.056
1.99075 	17.9039
1.99315 	17.7524
1.99554 	17.6014
1.99794 	17.451
2.00034 	17.3011
2.00274 	17.1518
2.00514 	17.003
2.00753 	16.8547
2.00993 	16.7069
2.01233 	16.5597
2.01473 	16.413
2.01713 	16.2669
2.01952 	16.1212
2.02192 	15.9761
2.02432 	15.8315
2.02672 	15.6874
2.02912 	15.5438
2.03151 	15.4008
2.03391 	15.2582
2.03631 	15.1161
2.03871 	14.9746
2.04111 	14.8335
2.0435 	14.6929
2.0459 	14.5529
2.0483 	14.4133
2.0507 	14.2742
2.0531 	14.1356
2.05549 	13.9975
2.05789 	13.8599
2.06029 	13.7227
2.06269 	13.5861
2.06509 	13.4499
2.06748 	13.3141
2.06988 	13.1789
2.07228 	13.0441
2.07468 	12.9098
2.07708 	12.776
2.07947 	12.6426
2.08187 	12.5097
2.08427 	12.3772
2.08667 	12.2452
2.08907 	12.1137
2.09146 	11.9826
2.09386 	11.8519
2.09626 	11.7217
2.09866 	11.592
2.10106 	11.4627
2.10345 	11.3338
2.10585 	11.2054
2.10825 	11.0774
2.11065 	10.9499
2.11305 	10.8228
2.11544 	10.6961
2.11784 	10.5698
2.12024 	10.444
2.12264 	10.3186
2.12504 	10.1937
2.12743 	10.0691
2.12983 	9.94502
2.13223 	9.82132
2.13463 	9.69804
2.13703 	9.57517
2.13942 	9.45272
2.14182 	9.33068
2.14422 	9.20905
2.14662 	9.08782
2.14902 	8.96701
2.15141 	8.8466
2.15381 	8.72659
2.15621 	8.60698
2.15861 	8.48777
2.16101 	8.36896
2.1634 	8.25055
2.1658 	8.13252
2.1682 	8.0149
2.1706 	7.89766
2.173 	7.78081
2.17539 	7.66435
2.17779 	7.54827
2.18019 	7.43258
2.18259 	7.31726
2.18499 	7.20233
2.18738 	7.08778
2.18978 	6.97361
2.19218 	6.85981
2.19458 	6.74638
2.19698 	6.63333
2.19937 	6.52064
2.20177 	6.40833
2.20417 	6.29638
2.20657 	6.1848
2.20897 	6.07358
2.21136 	5.96273
2.21376 	5.85223
2.21616 	5.7421
2.21856 	5.63232
2.22096 	5.5229
2.22335 	5.41383
2.22575 	5.30512
2.22815 	5.19676
2.23055 	5.08875
2.23295 	4.98109
2.23534 	4.87378
2.23774 	4.76681
2.24014 	4.66018
2.24254 	4.5539
2.24494 	4.44796
2.24733 	4.34236
2.24973 	4.2371
2.25213 	4.13217
2.25453 	4.02759
2.25693 	3.92333
2.25932 	3.81941
2.26172 	3.71582
2.26412 	3.61256
2.26652 	3.50962
2.26892 	3.40702
2.27131 	3.30474
2.27371 	3.20279
2.27611 	3.10115
2.27851 	2.99984
2.28091 	2.89885
2.2833 	2.79818
2.2857 	2.69783
2.2881 	2.59779
2.2905 	2.49807
2.2929 	2.39866
2.29529 	2.29957
2.29769 	2.20078
2.30009 	2.10231
2.30249 	2.00414
2.30489 	1.90628
2.30728 	1.80873
2.30968 	1.71148
2.31208 	1.61454
2.31448 	1.5179
2.31688 	1.42156
2.31927 	1.32551
2.32167 	1.22977
2.32407 	1.13433
2.32647 	1.03918
2.32887 	0.944321
2.33126 	0.849759
2.33366 	0.75549
2.33606 	0.661512
2.33846 	0.567825
2.34086 	0.474426
2.34325 	0.381315
2.34565 	0.28849
2.34805 	0.195951
2.35045 	0.103696
2.35285 	0.0117234
2.35524 	-0.0799668
2.35764 	-0.171376
2.36004 	-0.262506
2.36244 	-0.353358
2.36484 	-0.443932
2.36723 	-0.53423
2.36963 	-0.624253
2.37203 	-0.714002
2.37443 	-0.803478
2.37683 	-0.892682
2.37922 	-0.981615
2.38162 	-1.07028
2.38402 	-1.15867
2.38642 	-1.2468
2.38882 	-1.33466
2.39121 	-1.42226
2.39361 	-1.50959
2.39601 	-1.59666
2.39841 	-1.68347
2.40081 	-1.77001
2.4032 	-1.8563
2.4056 	-1.94232
2.408 	-2.02809
2.4104 	-2.1136
2.4128 	-2.19886
2.41519 	-2.28386
2.41759 	-2.3686
2.41999 	-2.4531
2.42239 	-2.53734
2.42479 	-2.62133
2.42718 	-2.70507
2.42958 	-2.78856
2.43198 	-2.8718
2.43438 	-2.9548
2.43678 	-3.03755
2.43917 	-3.12005
2.44157 	-3.20231
2.44397 	-3.28433
2.44637 	-3.3661
2.44877 	-3.44764
2.45116 	-3.52893
2.45356 	-3.60999
2.45596 	-3.6908
2.45836 	-3.77138
2.46076 	-3.85172
2.46315 	-3.93183
2.46555 	-4.0117
2.46795 	-4.09133
2.47035 	-4.17074
2.47275 	-4.24991
2.47514 	-4.32885
2.47754 	-4.40756
2.47994 	-4.48604
2.48234 	-4.56429
2.48474 	-4.64231
2.48713 	-4.72011
2.48953 	-4.79768
2.49193 	-4.87503
2.49433 	-4.95215
2.49673 	-5.02905
2.49912 	-5.10572
2.50152 	-5.18218
2.50392 	-5.25841
2.50632 	-5.33442
2.50872 	-5.41022
2.51111 	-5.48579
2.51351 	-5.56115
2.51591 	-5.63629
2.51831 	-5.71122
2.52071 	-5.78593
2.5231 	-5.86042
2.5255 	-5.93471
2.5279 	-6.00878
2.5303 	-6.08264
2.5327 	-6.15628
2.53509 	-6.22972
2.53749 	-6.30295
2.53989 	-6.37597
2.54229 	-6.44878
2.54469 	-6.52138
2.54708 	-6.59378
2.54948 	-6.66597
2.55188 	-6.73796
2.55428 	-6.80974
2.55668 	-6.88132
2.55907 	-6.9527
2.56147 	-7.02388
2.56387 	-7.09485
2.56627 	-7.16562
2.56867 	-7.2362
2.57106 	-7.30658
2.57346 	-7.37675
2.57586 	-7.44673
2.57826 	-7.51652
2.58066 	-7.58611
2.58305 	-7.6555
2.58545 	-7.7247
2.58785 	-7.7937
2.59025 	-7.86252
2.59265 	-7.93114
2.59504 	-7.99956
2.59744 	-8.0678
2.59984 	-8.13585
2.60224 	-8.20371
2.60464 	-8.27138
2.60703 	-8.33886
2.60943 	-8.40615
2.61183 	-8.47326
2.61423 	-8.54018
2.61663 	-8.60691
2.61902 	-8.67346
2.62142 	-8.73983
2.62382 	-8.80601
2.62622 	-8.87201
2.62862 	-8.93783
2.63101 	-9.00347
2.63341 	-9.06892
2.63581 	-9.1342
2.63821 	-9.1993
2.64061 	-9.26421
2.643 	-9.32895
2.6454 	-9.39352
2.6478 	-9.4579
2.6502 	-9.52211
2.6526 	-9.58614
2.65499 	-9.65
2.65739 	-9.71369
2.65979 	-9.7772
2.66219 	-9.84053
2.66459 	-9.9037
2.66698 	-9.96669
2.66938 	-10.0295
2.67178 	-10.0922
2.67418 	-10.1546
2.67658 	-10.217
2.67897 	-10.2791
2.68137 	-10.3411
2.68377 	-10.4029
2.68617 	-10.4645
2.68857 	-10.526
2.69096 	-10.5873
2.69336 	-10.6484
2.69576 	-10.7094
2.69816 	-10.7702
2.70056 	-10.8309
2.70295 	-10.8914
2.70535 	-10.9517
2.70775 	-11.0119
2.71015 	-11.0719
2.71255 	-11.1317
2.71494 	-11.1914
2.71734 	-11.2509
2.71974 	-11.3103
2.72214 	-11.3695
2.72454 	-11.4285
2.72693 	-11.4874
2.72933 	-11.5461
2.73173 	-11.6047
2.73413 	-11.6631
2.73653 	-11.7214
2.73892 	-11.7795
2.74132 	-11.8374
2.74372 	-11.8952
2.74612 	-11.9529
2.74852 	-12.0104
2.75091 	-12.0677
2.75331 	-12.1249
