# Mass = 0.0463958 Mev*(hbarc)^2/2 
# R = 3.78 fm 
# a = 0.662 fm 
# V0 = 56.9883 MeV 
# RSO = 3.48 fm 
# aSO = 0.662 fm 
# VSO = 29.9379 MeV fm^2
# Rc = 3.78 fm
# Zc = 12
# n = 0 
# l = 1 
# two_j = 3 
# two_t = 1 
# Energy = -23.2807 MeV
# r          u            Phi          u/r          
0.01         2.58722e-05  0.000268798  0.00258722   
0.012398     3.97681e-05  0.000333249  0.00320762   
0.014796     5.66391e-05  0.000397696  0.003828     
0.017194     7.6485e-05   0.00046214   0.00444835   
0.019592     9.93057e-05  0.000526579  0.00506869   
0.02199      0.000125101  0.000591013  0.00568899   
0.024388     0.00015387   0.000655441  0.00630927   
0.026786     0.000185614  0.000719863  0.00692951   
0.029184     0.000220331  0.000784278  0.00754972   
0.031582     0.000258022  0.000848686  0.0081699    
0.03398      0.000298685  0.000913086  0.00879003   
0.036378     0.000342322  0.000977478  0.00941013   
0.038776     0.00038893   0.00104186   0.0100302    
0.041174     0.00043851   0.00110623   0.0106502    
0.043572     0.000491062  0.0011706    0.0112701    
0.04597      0.000546584  0.00123495   0.01189      
0.048368     0.000605077  0.00129929   0.0125099    
0.050766     0.00066654   0.00136362   0.0131297    
0.053164     0.000730972  0.00142793   0.0137494    
0.055562     0.000798373  0.00149224   0.014369     
0.05796      0.000868742  0.00155653   0.0149886    
0.060358     0.000942078  0.0016208    0.0156082    
0.062756     0.00101838   0.00168507   0.0162276    
0.065154     0.00109765   0.00174931   0.016847     
0.067552     0.00117988   0.00181354   0.0174663    
0.06995      0.00126508   0.00187776   0.0180855    
0.072348     0.00135325   0.00194196   0.0187047    
0.074746     0.00144437   0.00200614   0.0193238    
0.077144     0.00153846   0.0020703    0.0199427    
0.079542     0.00163551   0.00213445   0.0205616    
0.08194      0.00173552   0.00219857   0.0211804    
0.084338     0.00183849   0.00226268   0.0217991    
0.086736     0.00194442   0.00232676   0.0224177    
0.089134     0.00205331   0.00239083   0.0230362    
0.091532     0.00216515   0.00245487   0.0236546    
0.09393      0.00227995   0.00251889   0.0242729    
0.096328     0.00239771   0.00258289   0.0248911    
0.098726     0.00251842   0.00264687   0.0255092    
0.101124     0.00264208   0.00271083   0.0261271    
0.103522     0.00276869   0.00277476   0.026745     
0.10592      0.00289825   0.00283866   0.0273627    
0.108318     0.00303077   0.00290254   0.0279803    
0.110716     0.00316623   0.0029664    0.0285978    
0.113114     0.00330464   0.00303023   0.0292151    
0.115512     0.00344599   0.00309403   0.0298323    
0.11791      0.00359029   0.0031578    0.0304494    
0.120308     0.00373753   0.00322155   0.0310664    
0.122706     0.00388772   0.00328527   0.0316832    
0.125104     0.00404084   0.00334896   0.0322999    
0.127502     0.00419691   0.00341262   0.0329164    
0.1299       0.00435591   0.00347625   0.0335328    
0.132298     0.00451785   0.00353985   0.034149     
0.134696     0.00468272   0.00360342   0.0347651    
0.137094     0.00485053   0.00366696   0.0353811    
0.139492     0.00502127   0.00373047   0.0359968    
0.14189      0.00519494   0.00379394   0.0366125    
0.144288     0.00537154   0.00385738   0.0372279    
0.146686     0.00555107   0.00392078   0.0378432    
0.149084     0.00573353   0.00398416   0.0384584    
0.151482     0.00591891   0.00404749   0.0390733    
0.15388      0.00610721   0.00411079   0.0396881    
0.156278     0.00629843   0.00417406   0.0403027    
0.158676     0.00649257   0.00423729   0.0409172    
0.161074     0.00668964   0.00430048   0.0415314    
0.163472     0.00688961   0.00436364   0.0421455    
0.16587      0.0070925    0.00442675   0.0427594    
0.168268     0.00729831   0.00448983   0.0433731    
0.170666     0.00750702   0.00455287   0.0439866    
0.173064     0.00771865   0.00461587   0.0446       
0.175462     0.00793318   0.00467883   0.0452131    
0.17786      0.00815062   0.00474174   0.045826     
0.180258     0.00837096   0.00480462   0.0464388    
0.182656     0.0085942    0.00486745   0.0470513    
0.185054     0.00882034   0.00493025   0.0476636    
0.187452     0.00904938   0.00499299   0.0482757    
0.18985      0.00928131   0.0050557    0.0488876    
0.192248     0.00951614   0.00511836   0.0494993    
0.194646     0.00975386   0.00518098   0.0501108    
0.197044     0.00999447   0.00524355   0.050722     
0.199442     0.010238     0.00530608   0.0513331    
0.20184      0.0104843    0.00536856   0.0519439    
0.204238     0.0107336    0.00543099   0.0525544    
0.206636     0.0109858    0.00549338   0.0531648    
0.209034     0.0112408    0.00555571   0.0537749    
0.211432     0.0114987    0.005618     0.0543848    
0.21383      0.0117595    0.00568024   0.0549944    
0.216228     0.0120231    0.00574244   0.0556039    
0.218626     0.0122896    0.00580458   0.056213     
0.221024     0.012559     0.00586667   0.0568219    
0.223422     0.0128313    0.00592871   0.0574306    
0.22582      0.0131064    0.0059907    0.058039     
0.228218     0.0133843    0.00605263   0.0586472    
0.230616     0.0136652    0.00611452   0.0592551    
0.233014     0.0139489    0.00617635   0.0598628    
0.235412     0.0142354    0.00623812   0.0604702    
0.23781      0.0145248    0.00629985   0.0610773    
0.240208     0.014817     0.00636152   0.0616842    
0.242606     0.0151121    0.00642313   0.0622908    
0.245004     0.01541      0.00648468   0.0628971    
0.247402     0.0157108    0.00654619   0.0635032    
0.2498       0.0160144    0.00660763   0.0641089    
0.252198     0.0163209    0.00666902   0.0647144    
0.254596     0.0166301    0.00673034   0.0653197    
0.256994     0.0169422    0.00679161   0.0659246    
0.259392     0.0172572    0.00685282   0.0665292    
0.26179      0.0175749    0.00691398   0.0671336    
0.264188     0.0178955    0.00697507   0.0677377    
0.266586     0.0182189    0.0070361    0.0683414    
0.268984     0.0185451    0.00709707   0.0689449    
0.271382     0.0188741    0.00715798   0.0695481    
0.27378      0.0192059    0.00721882   0.070151     
0.276178     0.0195406    0.00727961   0.0707535    
0.278576     0.019878     0.00734033   0.0713558    
0.280974     0.0202183    0.00740098   0.0719578    
0.283372     0.0205613    0.00746158   0.0725594    
0.28577      0.0209071    0.0075221    0.0731607    
0.288168     0.0212558    0.00758257   0.0737618    
0.290566     0.0216072    0.00764296   0.0743624    
0.292964     0.0219614    0.00770329   0.0749628    
0.295362     0.0223184    0.00776356   0.0755629    
0.29776      0.0226782    0.00782375   0.0761626    
0.300158     0.0230407    0.00788388   0.076762     
0.302556     0.023406     0.00794394   0.077361     
0.304954     0.0237741    0.00800393   0.0779597    
0.307352     0.024145     0.00806385   0.0785581    
0.30975      0.0245186    0.00812371   0.0791562    
0.312148     0.024895     0.00818349   0.0797539    
0.314546     0.0252742    0.0082432    0.0803512    
0.316944     0.0256561    0.00830284   0.0809482    
0.319342     0.0260407    0.0083624    0.0815449    
0.32174      0.0264281    0.0084219    0.0821412    
0.324138     0.0268183    0.00848132   0.0827371    
0.326536     0.0272111    0.00854067   0.0833327    
0.328934     0.0276068    0.00859994   0.083928     
0.331332     0.0280051    0.00865914   0.0845228    
0.33373      0.0284062    0.00871827   0.0851173    
0.336128     0.02881      0.00877731   0.0857115    
0.338526     0.0292166    0.00883629   0.0863052    
0.340924     0.0296258    0.00889518   0.0868986    
0.343322     0.0300378    0.008954     0.0874916    
0.34572      0.0304525    0.00901274   0.0880843    
0.348118     0.0308699    0.00907141   0.0886765    
0.350516     0.03129      0.00912999   0.0892684    
0.352914     0.0317128    0.0091885    0.0898599    
0.355312     0.0321383    0.00924692   0.090451     
0.35771      0.0325665    0.00930527   0.0910417    
0.360108     0.0329974    0.00936354   0.091632     
0.362506     0.033431     0.00942172   0.092222     
0.364904     0.0338673    0.00947982   0.0928115    
0.367302     0.0343062    0.00953784   0.0934006    
0.3697       0.0347479    0.00959578   0.0939893    
0.372098     0.0351921    0.00965364   0.0945776    
0.374496     0.0356391    0.00971141   0.0951655    
0.376894     0.0360887    0.00976909   0.095753     
0.379292     0.036541     0.0098267    0.0963401    
0.38169      0.036996     0.00988421   0.0969268    
0.384088     0.0374536    0.00994165   0.097513     
0.386486     0.0379138    0.00999899   0.0980989    
0.388884     0.0383767    0.0100563    0.0986843    
0.391282     0.0388423    0.0101134    0.0992693    
0.39368      0.0393104    0.0101705    0.0998538    
0.396078     0.0397813    0.0102275    0.100438     
0.398476     0.0402547    0.0102844    0.101022     
0.400874     0.0407308    0.0103412    0.101605     
0.403272     0.0412094    0.010398     0.102188     
0.40567      0.0416907    0.0104546    0.10277      
0.408068     0.0421746    0.0105111    0.103352     
0.410466     0.0426612    0.0105676    0.103934     
0.412864     0.0431503    0.010624     0.104515     
0.415262     0.043642     0.0106802    0.105095     
0.41766      0.0441363    0.0107364    0.105675     
0.420058     0.0446332    0.0107925    0.106255     
0.422456     0.0451327    0.0108485    0.106834     
0.424854     0.0456348    0.0109044    0.107413     
0.427252     0.0461395    0.0109602    0.107991     
0.42965      0.0466467    0.0110159    0.108569     
0.432048     0.0471565    0.0110715    0.109146     
0.434446     0.0476689    0.0111271    0.109723     
0.436844     0.0481838    0.0111825    0.1103       
0.439242     0.0487013    0.0112378    0.110876     
0.44164      0.0492213    0.011293     0.111451     
0.444038     0.0497439    0.0113482    0.112026     
0.446436     0.050269     0.0114032    0.112601     
0.448834     0.0507967    0.0114582    0.113175     
0.451232     0.0513269    0.011513     0.113748     
0.45363      0.0518596    0.0115677    0.114321     
0.456028     0.0523949    0.0116224    0.114894     
0.458426     0.0529327    0.0116769    0.115466     
0.460824     0.053473     0.0117313    0.116038     
0.463222     0.0540157    0.0117857    0.116609     
0.46562      0.0545611    0.0118399    0.117179     
0.468018     0.0551089    0.011894     0.117749     
0.470416     0.0556592    0.011948     0.118319     
0.472814     0.0562119    0.012002     0.118888     
0.475212     0.0567672    0.0120558    0.119457     
0.47761      0.057325     0.0121095    0.120025     
0.480008     0.0578852    0.0121631    0.120592     
0.482406     0.0584479    0.0122166    0.121159     
0.484804     0.0590131    0.01227      0.121726     
0.487202     0.0595808    0.0123233    0.122292     
0.4896       0.0601509    0.0123765    0.122857     
0.491998     0.0607234    0.0124296    0.123422     
0.494396     0.0612984    0.0124825    0.123986     
0.496794     0.0618758    0.0125354    0.12455      
0.499192     0.0624557    0.0125882    0.125114     
0.50159      0.063038     0.0126408    0.125676     
0.503988     0.0636228    0.0126933    0.126239     
0.506386     0.0642099    0.0127458    0.1268       
0.508784     0.0647995    0.0127981    0.127362     
0.511182     0.0653915    0.0128503    0.127922     
0.51358      0.0659859    0.0129024    0.128482     
0.515978     0.0665827    0.0129544    0.129042     
0.518376     0.0671819    0.0130062    0.129601     
0.520774     0.0677835    0.013058     0.130159     
0.523172     0.0683875    0.0131096    0.130717     
0.52557      0.0689938    0.0131611    0.131274     
0.527968     0.0696026    0.0132126    0.131831     
0.530366     0.0702137    0.0132639    0.132387     
0.532764     0.0708271    0.0133151    0.132943     
0.535162     0.071443     0.0133661    0.133498     
0.53756      0.0720611    0.0134171    0.134052     
0.539958     0.0726817    0.0134679    0.134606     
0.542356     0.0733046    0.0135186    0.135159     
0.544754     0.0739298    0.0135692    0.135712     
0.547152     0.0745573    0.0136197    0.136264     
0.54955      0.0751872    0.0136701    0.136816     
0.551948     0.0758194    0.0137204    0.137367     
0.554346     0.0764539    0.0137705    0.137917     
0.556744     0.0770908    0.0138205    0.138467     
0.559142     0.0777299    0.0138704    0.139016     
0.56154      0.0783713    0.0139202    0.139565     
0.563938     0.0790151    0.0139698    0.140113     
0.566336     0.0796611    0.0140194    0.14066      
0.568734     0.0803094    0.0140688    0.141207     
0.571132     0.08096      0.0141181    0.141754     
0.57353      0.0816128    0.0141672    0.142299     
0.575928     0.0822679    0.0142163    0.142844     
0.578326     0.0829253    0.0142652    0.143389     
0.580724     0.083585     0.014314     0.143932     
0.583122     0.0842468    0.0143627    0.144476     
0.58552      0.084911     0.0144112    0.145018     
0.587918     0.0855773    0.0144596    0.14556      
0.590316     0.0862459    0.0145079    0.146101     
0.592714     0.0869168    0.0145561    0.146642     
0.595112     0.0875898    0.0146041    0.147182     
0.59751      0.0882651    0.0146521    0.147722     
0.599908     0.0889426    0.0146999    0.14826      
0.602306     0.0896222    0.0147475    0.148799     
0.604704     0.0903041    0.0147951    0.149336     
0.607102     0.0909882    0.0148425    0.149873     
0.6095       0.0916744    0.0148898    0.150409     
0.611898     0.0923629    0.0149369    0.150945     
0.614296     0.0930535    0.0149839    0.15148      
0.616694     0.0937462    0.0150308    0.152014     
0.619092     0.0944412    0.0150776    0.152548     
0.62149      0.0951383    0.0151242    0.153081     
0.623888     0.0958375    0.0151707    0.153613     
0.626286     0.0965389    0.0152171    0.154145     
0.628684     0.0972424    0.0152633    0.154676     
0.631082     0.0979481    0.0153094    0.155207     
0.63348      0.0986558    0.0153554    0.155736     
0.635878     0.0993657    0.0154012    0.156265     
0.638276     0.100078     0.015447     0.156794     
0.640674     0.100792     0.0154925    0.157322     
0.643072     0.101508     0.015538     0.157849     
0.64547      0.102226     0.0155833    0.158375     
0.647868     0.102947     0.0156284    0.158901     
0.650266     0.103669     0.0156735    0.159426     
0.652664     0.104394     0.0157184    0.15995      
0.655062     0.10512      0.0157631    0.160474     
0.65746      0.105849     0.0158077    0.160997     
0.659858     0.10658      0.0158522    0.161519     
0.662256     0.107313     0.0158966    0.162041     
0.664654     0.108048     0.0159408    0.162562     
0.667052     0.108784     0.0159849    0.163082     
0.66945      0.109523     0.0160288    0.163602     
0.671848     0.110264     0.0160726    0.164121     
0.674246     0.111007     0.0161163    0.164639     
0.676644     0.111752     0.0161598    0.165157     
0.679042     0.112499     0.0162032    0.165673     
0.68144      0.113248     0.0162464    0.166189     
0.683838     0.113999     0.0162895    0.166705     
0.686236     0.114752     0.0163324    0.167219     
0.688634     0.115507     0.0163753    0.167733     
0.691032     0.116264     0.0164179    0.168247     
0.69343      0.117023     0.0164604    0.168759     
0.695828     0.117784     0.0165028    0.169271     
0.698226     0.118546     0.0165451    0.169782     
0.700624     0.119311     0.0165872    0.170293     
0.703022     0.120078     0.0166291    0.170802     
0.70542      0.120846     0.0166709    0.171311     
0.707818     0.121617     0.0167126    0.171819     
0.710216     0.122389     0.0167541    0.172327     
0.712614     0.123164     0.0167955    0.172834     
0.715012     0.12394      0.0168367    0.17334      
0.71741      0.124718     0.0168778    0.173845     
0.719808     0.125498     0.0169188    0.174349     
0.722206     0.12628      0.0169595    0.174853     
0.724604     0.127064     0.0170002    0.175356     
0.727002     0.12785      0.0170407    0.175859     
0.7294       0.128637     0.017081     0.17636      
0.731798     0.129427     0.0171212    0.176861     
0.734196     0.130218     0.0171613    0.177361     
0.736594     0.131011     0.0172012    0.177861     
0.738992     0.131806     0.0172409    0.178359     
0.74139      0.132603     0.0172805    0.178857     
0.743788     0.133401     0.01732      0.179354     
0.746186     0.134202     0.0173593    0.17985      
0.748584     0.135004     0.0173985    0.180346     
0.750982     0.135808     0.0174375    0.180841     
0.75338      0.136614     0.0174763    0.181335     
0.755778     0.137422     0.017515     0.181828     
0.758176     0.138231     0.0175536    0.182321     
0.760574     0.139042     0.0175919    0.182812     
0.762972     0.139855     0.0176302    0.183303     
0.76537      0.14067      0.0176683    0.183793     
0.767768     0.141486     0.0177062    0.184283     
0.770166     0.142305     0.017744     0.184771     
0.772564     0.143125     0.0177816    0.185259     
0.774962     0.143946     0.0178191    0.185746     
0.77736      0.14477      0.0178564    0.186233     
0.779758     0.145595     0.0178936    0.186718     
0.782156     0.146422     0.0179306    0.187203     
0.784554     0.14725      0.0179674    0.187687     
0.786952     0.148081     0.0180041    0.18817      
0.78935      0.148913     0.0180407    0.188652     
0.791748     0.149746     0.018077     0.189134     
0.794146     0.150581     0.0181133    0.189614     
0.796544     0.151418     0.0181493    0.190094     
0.798942     0.152257     0.0181853    0.190573     
0.80134      0.153097     0.018221     0.191052     
0.803738     0.153939     0.0182566    0.191529     
0.806136     0.154783     0.018292     0.192006     
0.808534     0.155628     0.0183273    0.192482     
0.810932     0.156475     0.0183624    0.192957     
0.81333      0.157323     0.0183974    0.193431     
0.815728     0.158173     0.0184322    0.193905     
0.818126     0.159025     0.0184668    0.194377     
0.820524     0.159878     0.0185013    0.194849     
0.822922     0.160733     0.0185356    0.19532      
0.82532      0.16159      0.0185698    0.19579      
0.827718     0.162448     0.0186038    0.19626      
0.830116     0.163307     0.0186376    0.196728     
0.832514     0.164168     0.0186713    0.197196     
0.834912     0.165031     0.0187048    0.197663     
0.83731      0.165895     0.0187381    0.198129     
0.839708     0.166761     0.0187713    0.198594     
0.842106     0.167628     0.0188043    0.199058     
0.844504     0.168497     0.0188372    0.199522     
0.846902     0.169367     0.0188699    0.199985     
0.8493       0.170239     0.0189024    0.200447     
0.851698     0.171113     0.0189348    0.200908     
0.854096     0.171987     0.018967     0.201368     
0.856494     0.172864     0.018999     0.201827     
0.858892     0.173742     0.0190309    0.202286     
0.86129      0.174621     0.0190626    0.202743     
0.863688     0.175501     0.0190941    0.2032       
0.866086     0.176384     0.0191255    0.203656     
0.868484     0.177267     0.0191567    0.204111     
0.870882     0.178152     0.0191877    0.204565     
0.87328      0.179039     0.0192186    0.205019     
0.875678     0.179927     0.0192493    0.205471     
0.878076     0.180816     0.0192799    0.205923     
0.880474     0.181707     0.0193102    0.206374     
0.882872     0.182599     0.0193404    0.206823     
0.88527      0.183492     0.0193705    0.207273     
0.887668     0.184387     0.0194003    0.207721     
0.890066     0.185283     0.01943      0.208168     
0.892464     0.186181     0.0194596    0.208614     
0.894862     0.18708      0.0194889    0.20906      
0.89726      0.18798      0.0195181    0.209505     
