# Mass = 0.0473905 Mev*(hbarc)^2/2 
# R = 4.82059 fm 
# a = 0.662 fm 
# V0 = 50.2779 MeV 
# RSO = 4.438 fm 
# aSO = 0.662 fm 
# VSO = 28.6942 MeV fm^2
# Rc = 4.82059 fm
# Zc = 0
# n = 0 
# l = 1 
# two_j = 3 
# two_t = -1 
# Energy = -32.0792 MeV
# r          u            Phi          u/r          
0.01         1.71199e-05  2.44326e-05  0.00171199   
0.012398     2.63149e-05  3.02912e-05  0.00212252   
0.014796     3.74788e-05  3.61496e-05  0.00253304   
0.017194     5.06114e-05  4.20078e-05  0.00294355   
0.019592     6.57125e-05  4.78657e-05  0.00335405   
0.02199      8.27823e-05  5.37234e-05  0.00376454   
0.024388     0.00010182   5.95807e-05  0.00417502   
0.026786     0.000122827  6.54376e-05  0.00458549   
0.029184     0.000145801  7.12941e-05  0.00499594   
0.031582     0.000170744  7.71502e-05  0.00540637   
0.03398      0.000197655  8.30058e-05  0.00581679   
0.036378     0.000226533  8.88609e-05  0.00622719   
0.038776     0.000257379  9.47155e-05  0.00663758   
0.041174     0.000290192  0.000100569  0.00704794   
0.043572     0.000324972  0.000106423  0.00745828   
0.04597      0.000361719  0.000112276  0.0078686    
0.048368     0.000400433  0.000118128  0.00827889   
0.050766     0.000441114  0.000123979  0.00868916   
0.053164     0.00048376   0.00012983   0.0090994    
0.055562     0.000528373  0.000135679  0.00950961   
0.05796      0.000574951  0.000141528  0.0099198    
0.060358     0.000623495  0.000147376  0.01033      
0.062756     0.000674004  0.000153224  0.0107401    
0.065154     0.000726478  0.00015907   0.0111502    
0.067552     0.000780916  0.000164915  0.0115602    
0.06995      0.000837319  0.00017076   0.0119702    
0.072348     0.000895685  0.000176603  0.0123802    
0.074746     0.000956015  0.000182445  0.0127902    
0.077144     0.00101831   0.000188286  0.0132001    
0.079542     0.00108256   0.000194126  0.01361      
0.08194      0.00114878   0.000199965  0.0140198    
0.084338     0.00121696   0.000205803  0.0144296    
0.086736     0.0012871    0.000211639  0.0148393    
0.089134     0.00135921   0.000217474  0.015249     
0.091532     0.00143327   0.000223308  0.0156587    
0.09393      0.00150929   0.000229141  0.0160683    
0.096328     0.00158728   0.000234972  0.0164778    
0.098726     0.00166722   0.000240802  0.0168873    
0.101124     0.00174912   0.00024663   0.0172968    
0.103522     0.00183298   0.000252457  0.0177062    
0.10592      0.0019188    0.000258282  0.0181155    
0.108318     0.00200657   0.000264106  0.0185248    
0.110716     0.00209631   0.000269928  0.0189341    
0.113114     0.00218799   0.000275748  0.0193433    
0.115512     0.00228164   0.000281567  0.0197524    
0.11791      0.00237724   0.000287384  0.0201615    
0.120308     0.00247479   0.0002932    0.0205705    
0.122706     0.0025743    0.000299013  0.0209794    
0.125104     0.00267576   0.000304825  0.0213883    
0.127502     0.00277917   0.000310635  0.0217971    
0.1299       0.00288454   0.000316443  0.0222058    
0.132298     0.00299186   0.00032225   0.0226145    
0.134696     0.00310113   0.000328054  0.0230231    
0.137094     0.00321234   0.000333856  0.0234317    
0.139492     0.00332551   0.000339657  0.0238402    
0.14189      0.00344063   0.000345455  0.0242486    
0.144288     0.0035577    0.000351251  0.0246569    
0.146686     0.00367671   0.000357046  0.0250652    
0.149084     0.00379767   0.000362838  0.0254733    
0.151482     0.00392057   0.000368627  0.0258815    
0.15388      0.00404543   0.000374415  0.0262895    
0.156278     0.00417222   0.000380201  0.0266974    
0.158676     0.00430096   0.000385984  0.0271053    
0.161074     0.00443164   0.000391765  0.0275131    
0.163472     0.00456427   0.000397543  0.0279208    
0.16587      0.00469884   0.000403319  0.0283284    
0.168268     0.00483534   0.000409093  0.028736     
0.170666     0.00497379   0.000414864  0.0291434    
0.173064     0.00511418   0.000420633  0.0295508    
0.175462     0.0052565    0.000426399  0.0299581    
0.17786      0.00540076   0.000432163  0.0303652    
0.180258     0.00554696   0.000437924  0.0307723    
0.182656     0.00569509   0.000443682  0.0311793    
0.185054     0.00584516   0.000449438  0.0315862    
0.187452     0.00599716   0.000455191  0.0319931    
0.18985      0.0061511    0.000460942  0.0323998    
0.192248     0.00630697   0.000466689  0.0328064    
0.194646     0.00646476   0.000472434  0.0332129    
0.197044     0.00662449   0.000478176  0.0336194    
0.199442     0.00678615   0.000483915  0.0340257    
0.20184      0.00694973   0.000489652  0.0344319    
0.204238     0.00711525   0.000495385  0.034838     
0.206636     0.00728269   0.000501115  0.035244     
0.209034     0.00745205   0.000506843  0.0356499    
0.211432     0.00762334   0.000512567  0.0360557    
0.21383      0.00779655   0.000518288  0.0364614    
0.216228     0.00797168   0.000524007  0.036867     
0.218626     0.00814874   0.000529722  0.0372725    
0.221024     0.00832771   0.000535434  0.0376779    
0.223422     0.00850861   0.000541142  0.0380831    
0.22582      0.00869142   0.000546848  0.0384883    
0.228218     0.00887615   0.00055255   0.0388933    
0.230616     0.00906279   0.000558249  0.0392982    
0.233014     0.00925135   0.000563944  0.039703     
0.235412     0.00944182   0.000569637  0.0401077    
0.23781      0.00963421   0.000575325  0.0405122    
0.240208     0.0098285    0.000581011  0.0409166    
0.242606     0.0100247    0.000586693  0.0413209    
0.245004     0.0102228    0.000592371  0.0417251    
0.247402     0.0104228    0.000598046  0.0421292    
0.2498       0.0106248    0.000603717  0.0425331    
0.252198     0.0108286    0.000609385  0.0429369    
0.254596     0.0110343    0.000615048  0.0433406    
0.256994     0.011242     0.000620709  0.0437442    
0.259392     0.0114515    0.000626365  0.0441476    
0.26179      0.011663     0.000632018  0.0445509    
0.264188     0.0118763    0.000637667  0.044954     
0.266586     0.0120916    0.000643313  0.045357     
0.268984     0.0123087    0.000648954  0.0457599    
0.271382     0.0125277    0.000654591  0.0461627    
0.27378      0.0127486    0.000660225  0.0465653    
0.276178     0.0129715    0.000665855  0.0469678    
0.278576     0.0131962    0.00067148   0.0473701    
0.280974     0.0134228    0.000677102  0.0477723    
0.283372     0.0136513    0.00068272   0.0481743    
0.28577      0.0138816    0.000688333  0.0485762    
0.288168     0.0141139    0.000693943  0.048978     
0.290566     0.014348     0.000699548  0.0493796    
0.292964     0.0145841    0.000705149  0.0497811    
0.295362     0.014822     0.000710746  0.0501824    
0.29776      0.0150618    0.000716339  0.0505835    
0.300158     0.0153034    0.000721927  0.0509846    
0.302556     0.015547     0.000727511  0.0513854    
0.304954     0.0157924    0.000733091  0.0517861    
0.307352     0.0160397    0.000738666  0.0521867    
0.30975      0.0162889    0.000744237  0.0525871    
0.312148     0.0165399    0.000749804  0.0529873    
0.314546     0.0167928    0.000755365  0.0533874    
0.316944     0.0170476    0.000760923  0.0537873    
0.319342     0.0173042    0.000766476  0.0541871    
0.32174      0.0175627    0.000772024  0.0545867    
0.324138     0.0178231    0.000777568  0.0549862    
0.326536     0.0180853    0.000783107  0.0553854    
0.328934     0.0183494    0.000788641  0.0557845    
0.331332     0.0186154    0.000794171  0.0561835    
0.33373      0.0188832    0.000799696  0.0565823    
0.336128     0.0191529    0.000805216  0.0569809    
0.338526     0.0194244    0.000810732  0.0573793    
0.340924     0.0196978    0.000816242  0.0577776    
0.343322     0.019973     0.000821748  0.0581757    
0.34572      0.0202501    0.000827248  0.0585736    
0.348118     0.020529     0.000832744  0.0589714    
0.350516     0.0208098    0.000838235  0.0593689    
0.352914     0.0210924    0.000843721  0.0597663    
0.355312     0.0213768    0.000849201  0.0601636    
0.35771      0.0216631    0.000854677  0.0605606    
0.360108     0.0219513    0.000860148  0.0609575    
0.362506     0.0222412    0.000865613  0.0613541    
0.364904     0.0225331    0.000871073  0.0617506    
0.367302     0.0228267    0.000876528  0.0621469    
0.3697       0.0231222    0.000881978  0.0625431    
0.372098     0.0234195    0.000887423  0.062939     
0.374496     0.0237186    0.000892862  0.0633348    
0.376894     0.0240196    0.000898296  0.0637303    
0.379292     0.0243224    0.000903724  0.0641257    
0.38169      0.024627     0.000909147  0.0645209    
0.384088     0.0249334    0.000914565  0.0649159    
0.386486     0.0252417    0.000919977  0.0653107    
0.388884     0.0255517    0.000925384  0.0657053    
0.391282     0.0258636    0.000930785  0.0660997    
0.39368      0.0261773    0.000936181  0.0664939    
0.396078     0.0264928    0.000941571  0.0668879    
0.398476     0.0268102    0.000946955  0.0672817    
0.400874     0.0271293    0.000952334  0.0676754    
0.403272     0.0274502    0.000957707  0.0680688    
0.40567      0.027773     0.000963074  0.068462     
0.408068     0.0280975    0.000968436  0.068855     
0.410466     0.0284239    0.000973792  0.0692478    
0.412864     0.028752     0.000979142  0.0696404    
0.415262     0.029082     0.000984486  0.0700328    
0.41766      0.0294137    0.000989824  0.070425     
0.420058     0.0297472    0.000995156  0.0708169    
0.422456     0.0300825    0.00100048   0.0712087    
0.424854     0.0304197    0.0010058    0.0716002    
0.427252     0.0307585    0.00101112   0.0719916    
0.42965      0.0310992    0.00101643   0.0723827    
0.432048     0.0314417    0.00102173   0.0727736    
0.434446     0.0317859    0.00102702   0.0731643    
0.436844     0.032132     0.00103231   0.0735548    
0.439242     0.0324798    0.0010376    0.073945     
0.44164      0.0328293    0.00104288   0.0743351    
0.444038     0.0331807    0.00104815   0.0747249    
0.446436     0.0335338    0.00105341   0.0751145    
0.448834     0.0338887    0.00105867   0.0755039    
0.451232     0.0342453    0.00106392   0.075893     
0.45363      0.0346038    0.00106917   0.0762819    
0.456028     0.0349639    0.00107441   0.0766706    
0.458426     0.0353259    0.00107964   0.0770591    
0.460824     0.0356896    0.00108487   0.0774473    
0.463222     0.036055     0.00109009   0.0778353    
0.46562      0.0364222    0.0010953    0.0782231    
0.468018     0.0367912    0.00110051   0.0786106    
0.470416     0.0371619    0.00110571   0.0789979    
0.472814     0.0375343    0.00111091   0.079385     
0.475212     0.0379085    0.00111609   0.0797719    
0.47761      0.0382845    0.00112127   0.0801585    
0.480008     0.0386622    0.00112645   0.0805448    
0.482406     0.0390416    0.00113161   0.080931     
0.484804     0.0394227    0.00113678   0.0813168    
0.487202     0.0398056    0.00114193   0.0817025    
0.4896       0.0401902    0.00114708   0.0820879    
0.491998     0.0405766    0.00115222   0.082473     
0.494396     0.0409646    0.00115735   0.0828579    
0.496794     0.0413544    0.00116248   0.0832426    
0.499192     0.0417459    0.0011676    0.083627     
0.50159      0.0421392    0.00117271   0.0840112    
0.503988     0.0425341    0.00117781   0.0843951    
0.506386     0.0429308    0.00118291   0.0847788    
0.508784     0.0433292    0.001188     0.0851622    
0.511182     0.0437293    0.00119309   0.0855454    
0.51358      0.0441311    0.00119816   0.0859283    
0.515978     0.0445346    0.00120323   0.086311     
0.518376     0.0449398    0.0012083    0.0866934    
0.520774     0.0453467    0.00121335   0.0870755    
0.523172     0.0457553    0.0012184    0.0874574    
0.52557      0.0461656    0.00122344   0.087839     
0.527968     0.0465775    0.00122847   0.0882204    
0.530366     0.0469912    0.0012335    0.0886015    
0.532764     0.0474066    0.00123852   0.0889823    
0.535162     0.0478236    0.00124353   0.0893629    
0.53756      0.0482424    0.00124853   0.0897432    
0.539958     0.0486628    0.00125353   0.0901233    
0.542356     0.0490849    0.00125852   0.0905031    
0.544754     0.0495086    0.0012635    0.0908826    
0.547152     0.0499341    0.00126847   0.0912618    
0.54955      0.0503612    0.00127344   0.0916408    
0.551948     0.05079      0.0012784    0.0920195    
0.554346     0.0512204    0.00128335   0.0923979    
0.556744     0.0516525    0.00128829   0.0927761    
0.559142     0.0520863    0.00129323   0.0931539    
0.56154      0.0525217    0.00129816   0.0935315    
0.563938     0.0529588    0.00130308   0.0939089    
0.566336     0.0533975    0.00130799   0.0942859    
0.568734     0.0538379    0.00131289   0.0946627    
0.571132     0.0542799    0.00131779   0.0950392    
0.57353      0.0547236    0.00132268   0.0954154    
0.575928     0.0551689    0.00132756   0.0957913    
0.578326     0.0556158    0.00133243   0.0961669    
0.580724     0.0560644    0.0013373    0.0965423    
0.583122     0.0565147    0.00134215   0.0969174    
0.58552      0.0569665    0.001347     0.0972922    
0.587918     0.05742      0.00135184   0.0976667    
0.590316     0.0578751    0.00135668   0.0980409    
0.592714     0.0583318    0.0013615    0.0984148    
0.595112     0.0587902    0.00136632   0.0987884    
0.59751      0.0592501    0.00137112   0.0991617    
0.599908     0.0597117    0.00137592   0.0995348    
0.602306     0.0601749    0.00138072   0.0999075    
0.604704     0.0606397    0.0013855    0.10028      
0.607102     0.0611061    0.00139027   0.100652     
0.6095       0.0615741    0.00139504   0.101024     
0.611898     0.0620437    0.0013998    0.101396     
0.614296     0.0625149    0.00140455   0.101767     
0.616694     0.0629877    0.00140929   0.102138     
0.619092     0.0634621    0.00141402   0.102508     
0.62149      0.0639381    0.00141875   0.102879     
0.623888     0.0644157    0.00142347   0.103249     
0.626286     0.0648948    0.00142817   0.103619     
0.628684     0.0653756    0.00143287   0.103988     
0.631082     0.0658579    0.00143756   0.104357     
0.63348      0.0663417    0.00144225   0.104726     
0.635878     0.0668272    0.00144692   0.105094     
0.638276     0.0673142    0.00145158   0.105463     
0.640674     0.0678028    0.00145624   0.10583      
0.643072     0.068293     0.00146089   0.106198     
0.64547      0.0687847    0.00146553   0.106565     
0.647868     0.069278     0.00147015   0.106932     
0.650266     0.0697728    0.00147478   0.107299     
0.652664     0.0702692    0.00147939   0.107665     
0.655062     0.0707671    0.00148399   0.108031     
0.65746      0.0712666    0.00148859   0.108397     
0.659858     0.0717676    0.00149317   0.108762     
0.662256     0.0722701    0.00149775   0.109127     
0.664654     0.0727742    0.00150231   0.109492     
0.667052     0.0732799    0.00150687   0.109856     
0.66945      0.073787     0.00151142   0.11022      
0.671848     0.0742957    0.00151596   0.110584     
0.674246     0.0748059    0.00152049   0.110948     
0.676644     0.0753176    0.00152502   0.111311     
0.679042     0.0758309    0.00152953   0.111673     
0.68144      0.0763456    0.00153403   0.112036     
0.683838     0.0768619    0.00153853   0.112398     
0.686236     0.0773797    0.00154301   0.11276      
0.688634     0.077899     0.00154749   0.113121     
0.691032     0.0784198    0.00155196   0.113482     
0.69343      0.0789421    0.00155641   0.113843     
0.695828     0.0794659    0.00156086   0.114203     
0.698226     0.0799911    0.0015653    0.114563     
0.700624     0.0805179    0.00156973   0.114923     
0.703022     0.0810462    0.00157415   0.115283     
0.70542      0.0815759    0.00157856   0.115642     
0.707818     0.0821071    0.00158296   0.116        
0.710216     0.0826398    0.00158735   0.116359     
0.712614     0.083174     0.00159174   0.116717     
0.715012     0.0837096    0.00159611   0.117074     
0.71741      0.0842467    0.00160047   0.117432     
0.719808     0.0847853    0.00160482   0.117789     
0.722206     0.0853254    0.00160917   0.118145     
0.724604     0.0858669    0.0016135    0.118502     
0.727002     0.0864098    0.00161783   0.118858     
0.7294       0.0869542    0.00162214   0.119213     
0.731798     0.0875001    0.00162645   0.119569     
0.734196     0.0880474    0.00163074   0.119923     
0.736594     0.0885961    0.00163503   0.120278     
0.738992     0.0891463    0.0016393    0.120632     
0.74139      0.0896979    0.00164357   0.120986     
0.743788     0.0902509    0.00164782   0.12134      
0.746186     0.0908054    0.00165207   0.121693     
0.748584     0.0913613    0.00165631   0.122045     
0.750982     0.0919186    0.00166053   0.122398     
0.75338      0.0924773    0.00166475   0.12275      
0.755778     0.0930375    0.00166895   0.123102     
0.758176     0.0935991    0.00167315   0.123453     
0.760574     0.094162     0.00167734   0.123804     
0.762972     0.0947264    0.00168151   0.124154     
0.76537      0.0952922    0.00168568   0.124505     
0.767768     0.0958594    0.00168983   0.124855     
0.770166     0.0964279    0.00169398   0.125204     
0.772564     0.0969979    0.00169812   0.125553     
0.774962     0.0975692    0.00170224   0.125902     
0.77736      0.098142     0.00170636   0.12625      
0.779758     0.0987161    0.00171046   0.126598     
0.782156     0.0992916    0.00171456   0.126946     
0.784554     0.0998685    0.00171864   0.127293     
0.786952     0.100447     0.00172271   0.12764      
0.78935      0.101026     0.00172678   0.127987     
0.791748     0.101607     0.00173083   0.128333     
0.794146     0.10219      0.00173487   0.128679     
0.796544     0.102773     0.00173891   0.129024     
0.798942     0.103358     0.00174293   0.129369     
0.80134      0.103945     0.00174694   0.129714     
0.803738     0.104532     0.00175094   0.130058     
0.806136     0.105122     0.00175493   0.130402     
0.808534     0.105712     0.00175891   0.130745     
0.810932     0.106304     0.00176288   0.131088     
0.81333      0.106897     0.00176684   0.131431     
0.815728     0.107491     0.00177079   0.131773     
0.818126     0.108087     0.00177472   0.132115     
0.820524     0.108684     0.00177865   0.132457     
0.822922     0.109282     0.00178257   0.132798     
0.82532      0.109882     0.00178647   0.133139     
0.827718     0.110483     0.00179037   0.133479     
0.830116     0.111085     0.00179425   0.133819     
0.832514     0.111689     0.00179812   0.134159     
0.834912     0.112294     0.00180199   0.134498     
0.83731      0.1129       0.00180584   0.134837     
0.839708     0.113508     0.00180968   0.135175     
0.842106     0.114116     0.00181351   0.135513     
0.844504     0.114727     0.00181733   0.135851     
0.846902     0.115338     0.00182113   0.136188     
0.8493       0.115951     0.00182493   0.136525     
0.851698     0.116564     0.00182872   0.136861     
0.854096     0.11718      0.00183249   0.137197     
0.856494     0.117796     0.00183625   0.137533     
0.858892     0.118414     0.00184001   0.137868     
0.86129      0.119033     0.00184375   0.138203     
0.863688     0.119653     0.00184748   0.138537     
0.866086     0.120274     0.0018512    0.138871     
0.868484     0.120897     0.00185491   0.139205     
0.870882     0.121521     0.00185861   0.139538     
0.87328      0.122146     0.00186229   0.139871     
0.875678     0.122773     0.00186597   0.140203     
0.878076     0.123401     0.00186963   0.140535     
0.880474     0.124029     0.00187328   0.140867     
0.882872     0.12466      0.00187692   0.141198     
0.88527      0.125291     0.00188055   0.141528     
0.887668     0.125923     0.00188417   0.141859     
0.890066     0.126557     0.00188778   0.142189     
0.892464     0.127192     0.00189137   0.142518     
0.894862     0.127828     0.00189496   0.142847     
0.89726      0.128466     0.00189853   0.143176     
