# Mass = 0.0479598 Mev*(hbarc)^2/2 
# R = 7.46549 fm 
# a = 0.662 fm 
# V0 = 59.5769 MeV 
# RSO = 6.87299 fm 
# aSO = 0.662 fm 
# VSO = 28.0171 MeV fm^2
# Rc = 7.46549 fm
# Zc = 81
# n = 0 
# l = 1 
# two_j = 1 
# two_t = 1 
# Energy = -29.9684 MeV
# r          u            Phi          u/r          
0.01         6.04763e-06  2.38097e-06  0.000604763  
0.012398     9.29583e-06  2.95191e-06  0.000749785  
0.014796     1.32395e-05  3.52285e-06  0.000894806  
0.017194     1.78788e-05  4.09379e-06  0.00103983   
0.019592     2.32135e-05  4.66471e-06  0.00118484   
0.02199      2.92437e-05  5.23563e-06  0.00132986   
0.024388     3.59693e-05  5.80653e-06  0.00147488   
0.026786     4.33904e-05  6.37742e-06  0.00161989   
0.029184     5.1507e-05   6.9483e-06   0.00176491   
0.031582     6.0319e-05   7.51917e-06  0.00190992   
0.03398      6.98264e-05  8.09002e-06  0.00205493   
0.036378     8.00291e-05  8.66085e-06  0.00219993   
0.038776     9.09273e-05  9.23167e-06  0.00234494   
0.041174     0.000102521  9.80247e-06  0.00248994   
0.043572     0.00011481   1.03732e-05  0.00263494   
0.04597      0.000127794  1.0944e-05   0.00277994   
0.048368     0.000141473  1.15147e-05  0.00292493   
0.050766     0.000155848  1.20854e-05  0.00306992   
0.053164     0.000170917  1.26561e-05  0.00321491   
0.055562     0.000186682  1.32268e-05  0.0033599    
0.05796      0.000203143  1.37974e-05  0.00350488   
0.060358     0.000220298  1.4368e-05   0.00364985   
0.062756     0.000238148  1.49386e-05  0.00379483   
0.065154     0.000256694  1.55091e-05  0.0039398    
0.067552     0.000275934  1.60797e-05  0.00408476   
0.06995      0.000295869  1.66501e-05  0.00422973   
0.072348     0.0003165    1.72206e-05  0.00437468   
0.074746     0.000337825  1.7791e-05   0.00451964   
0.077144     0.000359845  1.83614e-05  0.00466459   
0.079542     0.00038256   1.89317e-05  0.00480953   
0.08194      0.000405969  1.9502e-05   0.00495447   
0.084338     0.000430073  2.00722e-05  0.0050994    
0.086736     0.000454872  2.06425e-05  0.00524433   
0.089134     0.000480366  2.12126e-05  0.00538925   
0.091532     0.000506554  2.17828e-05  0.00553417   
0.09393      0.000533436  2.23529e-05  0.00567908   
0.096328     0.000561013  2.29229e-05  0.00582399   
0.098726     0.000589285  2.34929e-05  0.00596889   
0.101124     0.00061825   2.40628e-05  0.00611378   
0.103522     0.00064791   2.46327e-05  0.00625867   
0.10592      0.000678264  2.52026e-05  0.00640355   
0.108318     0.000709313  2.57724e-05  0.00654843   
0.110716     0.000741055  2.63421e-05  0.0066933    
0.113114     0.000773491  2.69118e-05  0.00683816   
0.115512     0.000806622  2.74814e-05  0.00698301   
0.11791      0.000840446  2.8051e-05   0.00712786   
0.120308     0.000874964  2.86205e-05  0.0072727    
0.122706     0.000910176  2.919e-05    0.00741753   
0.125104     0.000946081  2.97594e-05  0.00756236   
0.127502     0.00098268   3.03287e-05  0.00770717   
0.1299       0.00101997   3.0898e-05   0.00785198   
0.132298     0.00105796   3.14672e-05  0.00799678   
0.134696     0.00109664   3.20363e-05  0.00814158   
0.137094     0.00113601   3.26054e-05  0.00828636   
0.139492     0.00117608   3.31744e-05  0.00843114   
0.14189      0.00121684   3.37434e-05  0.0085759    
0.144288     0.00125829   3.43122e-05  0.00872066   
0.146686     0.00130043   3.48811e-05  0.00886541   
0.149084     0.00134327   3.54498e-05  0.00901015   
0.151482     0.0013868    3.60184e-05  0.00915488   
0.15388      0.00143102   3.6587e-05   0.00929961   
0.156278     0.00147594   3.71555e-05  0.00944432   
0.158676     0.00152155   3.7724e-05   0.00958902   
0.161074     0.00156785   3.82923e-05  0.00973371   
0.163472     0.00161484   3.88606e-05  0.0098784    
0.16587      0.00166253   3.94288e-05  0.0100231    
0.168268     0.0017109    3.99969e-05  0.0101677    
0.170666     0.00175997   4.0565e-05   0.0103124    
0.173064     0.00180973   4.11329e-05  0.010457     
0.175462     0.00186019   4.17008e-05  0.0106017    
0.17786      0.00191133   4.22686e-05  0.0107463    
0.180258     0.00196317   4.28363e-05  0.0108909    
0.182656     0.0020157    4.34039e-05  0.0110355    
0.185054     0.00206892   4.39714e-05  0.0111801    
0.187452     0.00212283   4.45388e-05  0.0113246    
0.18985      0.00217743   4.51062e-05  0.0114692    
0.192248     0.00223272   4.56734e-05  0.0116138    
0.194646     0.00228871   4.62406e-05  0.0117583    
0.197044     0.00234538   4.68076e-05  0.0119028    
0.199442     0.00240275   4.73746e-05  0.0120473    
0.20184      0.0024608    4.79415e-05  0.0121918    
0.204238     0.00251955   4.85082e-05  0.0123363    
0.206636     0.00257898   4.90749e-05  0.0124808    
0.209034     0.00263911   4.96415e-05  0.0126253    
0.211432     0.00269993   5.02079e-05  0.0127697    
0.21383      0.00276144   5.07743e-05  0.0129142    
0.216228     0.00282363   5.13405e-05  0.0130586    
0.218626     0.00288652   5.19067e-05  0.013203     
0.221024     0.0029501    5.24727e-05  0.0133474    
0.223422     0.00301436   5.30386e-05  0.0134918    
0.22582      0.00307932   5.36045e-05  0.0136362    
0.228218     0.00314496   5.41702e-05  0.0137805    
0.230616     0.0032113    5.47358e-05  0.0139249    
0.233014     0.00327832   5.53013e-05  0.0140692    
0.235412     0.00334603   5.58667e-05  0.0142135    
0.23781      0.00341443   5.64319e-05  0.0143578    
0.240208     0.00348352   5.69971e-05  0.0145021    
0.242606     0.00355329   5.75621e-05  0.0146464    
0.245004     0.00362376   5.8127e-05   0.0147906    
0.247402     0.00369491   5.86918e-05  0.0149349    
0.2498       0.00376675   5.92565e-05  0.0150791    
0.252198     0.00383928   5.9821e-05   0.0152233    
0.254596     0.0039125    6.03854e-05  0.0153675    
0.256994     0.0039864    6.09497e-05  0.0155117    
0.259392     0.00406099   6.15139e-05  0.0156558    
0.26179      0.00413627   6.2078e-05   0.0158       
0.264188     0.00421224   6.26419e-05  0.0159441    
0.266586     0.00428889   6.32057e-05  0.0160882    
0.268984     0.00436623   6.37693e-05  0.0162323    
0.271382     0.00444425   6.43329e-05  0.0163764    
0.27378      0.00452297   6.48963e-05  0.0165204    
0.276178     0.00460236   6.54595e-05  0.0166645    
0.278576     0.00468245   6.60227e-05  0.0168085    
0.280974     0.00476322   6.65857e-05  0.0169525    
0.283372     0.00484468   6.71485e-05  0.0170965    
0.28577      0.00492682   6.77112e-05  0.0172405    
0.288168     0.00500964   6.82738e-05  0.0173845    
0.290566     0.00509316   6.88363e-05  0.0175284    
0.292964     0.00517735   6.93985e-05  0.0176723    
0.295362     0.00526224   6.99607e-05  0.0178162    
0.29776      0.0053478    7.05227e-05  0.0179601    
0.300158     0.00543405   7.10846e-05  0.018104     
0.302556     0.00552099   7.16463e-05  0.0182478    
0.304954     0.00560861   7.22079e-05  0.0183917    
0.307352     0.00569691   7.27693e-05  0.0185355    
0.30975      0.0057859    7.33306e-05  0.0186793    
0.312148     0.00587557   7.38917e-05  0.018823     
0.314546     0.00596593   7.44526e-05  0.0189668    
0.316944     0.00605697   7.50135e-05  0.0191105    
0.319342     0.00614869   7.55741e-05  0.0192542    
0.32174      0.00624109   7.61346e-05  0.0193979    
0.324138     0.00633418   7.6695e-05   0.0195416    
0.326536     0.00642795   7.72552e-05  0.0196853    
0.328934     0.0065224    7.78152e-05  0.0198289    
0.331332     0.00661753   7.83751e-05  0.0199725    
0.33373      0.00671335   7.89348e-05  0.0201161    
0.336128     0.00680985   7.94943e-05  0.0202597    
0.338526     0.00690703   8.00537e-05  0.0204032    
0.340924     0.00700489   8.06129e-05  0.0205468    
0.343322     0.00710343   8.1172e-05   0.0206903    
0.34572      0.00720265   8.17308e-05  0.0208338    
0.348118     0.00730255   8.22896e-05  0.0209772    
0.350516     0.00740314   8.28481e-05  0.0211207    
0.352914     0.0075044    8.34065e-05  0.0212641    
0.355312     0.00760634   8.39647e-05  0.0214075    
0.35771      0.00770897   8.45227e-05  0.0215509    
0.360108     0.00781227   8.50806e-05  0.0216942    
0.362506     0.00791625   8.56382e-05  0.0218376    
0.364904     0.00802092   8.61957e-05  0.0219809    
0.367302     0.00812626   8.67531e-05  0.0221242    
0.3697       0.00823228   8.73102e-05  0.0222675    
0.372098     0.00833898   8.78672e-05  0.0224107    
0.374496     0.00844635   8.84239e-05  0.0225539    
0.376894     0.00855441   8.89805e-05  0.0226971    
0.379292     0.00866314   8.9537e-05   0.0228403    
0.38169      0.00877255   9.00932e-05  0.0229835    
0.384088     0.00888264   9.06492e-05  0.0231266    
0.386486     0.00899341   9.12051e-05  0.0232697    
0.388884     0.00910485   9.17608e-05  0.0234128    
0.391282     0.00921697   9.23162e-05  0.0235558    
0.39368      0.00932976   9.28715e-05  0.0236989    
0.396078     0.00944324   9.34266e-05  0.0238419    
0.398476     0.00955738   9.39815e-05  0.0239848    
0.400874     0.00967221   9.45362e-05  0.0241278    
0.403272     0.00978771   9.50908e-05  0.0242707    
0.40567      0.00990388   9.56451e-05  0.0244136    
0.408068     0.0100207    9.61992e-05  0.0245565    
0.410466     0.0101383    9.67531e-05  0.0246994    
0.412864     0.0102565    9.73068e-05  0.0248422    
0.415262     0.0103753    9.78604e-05  0.024985     
0.41766      0.0104949    9.84137e-05  0.0251278    
0.420058     0.0106151    9.89668e-05  0.0252706    
0.422456     0.010736     9.95197e-05  0.0254133    
0.424854     0.0108576    0.000100072  0.025556     
0.427252     0.0109798    0.000100625  0.0256987    
0.42965      0.0111027    0.000101177  0.0258413    
0.432048     0.0112263    0.000101729  0.025984     
0.434446     0.0113506    0.000102281  0.0261266    
0.436844     0.0114755    0.000102833  0.0262691    
0.439242     0.0116011    0.000103384  0.0264117    
0.44164      0.0117274    0.000103935  0.0265542    
0.444038     0.0118543    0.000104486  0.0266967    
0.446436     0.011982     0.000105037  0.0268391    
0.448834     0.0121102    0.000105588  0.0269816    
0.451232     0.0122392    0.000106138  0.027124     
0.45363      0.0123688    0.000106688  0.0272664    
0.456028     0.0124991    0.000107238  0.0274087    
0.458426     0.0126301    0.000107788  0.027551     
0.460824     0.0127617    0.000108337  0.0276933    
0.463222     0.0128941    0.000108887  0.0278356    
0.46562      0.013027     0.000109436  0.0279778    
0.468018     0.0131607    0.000109985  0.02812      
0.470416     0.013295     0.000110533  0.0282622    
0.472814     0.01343      0.000111081  0.0284044    
0.475212     0.0135656    0.00011163   0.0285465    
0.47761      0.0137019    0.000112177  0.0286886    
0.480008     0.0138389    0.000112725  0.0288306    
0.482406     0.0139766    0.000113272  0.0289727    
0.484804     0.0141149    0.00011382   0.0291147    
0.487202     0.0142539    0.000114367  0.0292566    
0.4896       0.0143935    0.000114913  0.0293986    
0.491998     0.0145339    0.00011546   0.0295405    
0.494396     0.0146748    0.000116006  0.0296824    
0.496794     0.0148165    0.000116552  0.0298242    
0.499192     0.0149588    0.000117098  0.029966     
0.50159      0.0151018    0.000117643  0.0301078    
0.503988     0.0152454    0.000118188  0.0302496    
0.506386     0.0153897    0.000118734  0.0303913    
0.508784     0.0155347    0.000119278  0.030533     
0.511182     0.0156803    0.000119823  0.0306747    
0.51358      0.0158266    0.000120367  0.0308163    
0.515978     0.0159736    0.000120911  0.0309579    
0.518376     0.0161212    0.000121455  0.0310995    
0.520774     0.0162695    0.000121998  0.031241     
0.523172     0.0164184    0.000122542  0.0313825    
0.52557      0.0165681    0.000123085  0.031524     
0.527968     0.0167183    0.000123627  0.0316654    
0.530366     0.0168693    0.00012417   0.0318068    
0.532764     0.0170208    0.000124712  0.0319482    
0.535162     0.0171731    0.000125254  0.0320895    
0.53756      0.017326     0.000125796  0.0322308    
0.539958     0.0174796    0.000126337  0.0323721    
0.542356     0.0176338    0.000126878  0.0325134    
0.544754     0.0177887    0.000127419  0.0326546    
0.547152     0.0179443    0.00012796   0.0327957    
0.54955      0.0181005    0.0001285    0.0329369    
0.551948     0.0182573    0.000129041  0.033078     
0.554346     0.0184148    0.00012958   0.0332191    
0.556744     0.018573     0.00013012   0.0333601    
0.559142     0.0187319    0.000130659  0.0335011    
0.56154      0.0188914    0.000131198  0.0336421    
0.563938     0.0190515    0.000131737  0.033783     
0.566336     0.0192123    0.000132276  0.0339239    
0.568734     0.0193738    0.000132814  0.0340648    
0.571132     0.0195359    0.000133352  0.0342056    
0.57353      0.0196987    0.00013389   0.0343464    
0.575928     0.0198621    0.000134427  0.0344871    
0.578326     0.0200262    0.000134964  0.0346279    
0.580724     0.0201909    0.000135501  0.0347685    
0.583122     0.0203563    0.000136037  0.0349092    
0.58552      0.0205224    0.000136574  0.0350498    
0.587918     0.0206891    0.00013711   0.0351904    
0.590316     0.0208564    0.000137645  0.0353309    
0.592714     0.0210244    0.000138181  0.0354714    
0.595112     0.0211931    0.000138716  0.0356119    
0.59751      0.0213624    0.000139251  0.0357523    
0.599908     0.0215323    0.000139785  0.0358927    
0.602306     0.0217029    0.00014032   0.0360331    
0.604704     0.0218742    0.000140853  0.0361734    
0.607102     0.0220461    0.000141387  0.0363137    
0.6095       0.0222187    0.00014192   0.0364539    
0.611898     0.0223919    0.000142454  0.0365941    
0.614296     0.0225657    0.000142986  0.0367343    
0.616694     0.0227402    0.000143519  0.0368744    
0.619092     0.0229154    0.000144051  0.0370145    
0.62149      0.0230912    0.000144583  0.0371546    
0.623888     0.0232677    0.000145114  0.0372946    
0.626286     0.0234448    0.000145646  0.0374346    
0.628684     0.0236225    0.000146177  0.0375745    
0.631082     0.0238009    0.000146707  0.0377144    
0.63348      0.0239799    0.000147238  0.0378543    
0.635878     0.0241596    0.000147768  0.0379941    
0.638276     0.0243399    0.000148297  0.0381339    
0.640674     0.0245209    0.000148827  0.0382736    
0.643072     0.0247025    0.000149356  0.0384133    
0.64547      0.0248848    0.000149885  0.038553     
0.647868     0.0250677    0.000150413  0.0386926    
0.650266     0.0252513    0.000150941  0.0388322    
0.652664     0.0254355    0.000151469  0.0389717    
0.655062     0.0256203    0.000151997  0.0391113    
0.65746      0.0258058    0.000152524  0.0392507    
0.659858     0.0259919    0.000153051  0.0393901    
0.662256     0.0261787    0.000153578  0.0395295    
0.664654     0.0263661    0.000154104  0.0396689    
0.667052     0.0265541    0.00015463   0.0398082    
0.66945      0.0267428    0.000155155  0.0399474    
0.671848     0.0269321    0.000155681  0.0400866    
0.674246     0.0271221    0.000156206  0.0402258    
0.676644     0.0273127    0.00015673   0.0403649    
0.679042     0.0275039    0.000157255  0.040504     
0.68144      0.0276958    0.000157779  0.0406431    
0.683838     0.0278884    0.000158302  0.0407821    
0.686236     0.0280815    0.000158826  0.0409211    
0.688634     0.0282753    0.000159349  0.04106      
0.691032     0.0284697    0.000159871  0.0411989    
0.69343      0.0286648    0.000160394  0.0413377    
0.695828     0.0288605    0.000160916  0.0414765    
0.698226     0.0290569    0.000161437  0.0416153    
0.700624     0.0292538    0.000161958  0.041754     
0.703022     0.0294514    0.000162479  0.0418926    
0.70542      0.0296497    0.000163     0.0420313    
0.707818     0.0298486    0.00016352   0.0421698    
0.710216     0.0300481    0.00016404   0.0423084    
0.712614     0.0302482    0.00016456   0.0424469    
0.715012     0.030449     0.000165079  0.0425853    
0.71741      0.0306504    0.000165598  0.0427237    
0.719808     0.0308525    0.000166117  0.0428621    
0.722206     0.0310551    0.000166635  0.0430004    
0.724604     0.0312584    0.000167153  0.0431387    
0.727002     0.0314624    0.00016767   0.0432769    
0.7294       0.031667     0.000168187  0.0434151    
0.731798     0.0318721    0.000168704  0.0435532    
0.734196     0.032078     0.00016922   0.0436913    
0.736594     0.0322844    0.000169737  0.0438293    
0.738992     0.0324915    0.000170252  0.0439673    
0.74139      0.0326992    0.000170768  0.0441053    
0.743788     0.0329076    0.000171283  0.0442432    
0.746186     0.0331165    0.000171797  0.0443811    
0.748584     0.0333261    0.000172312  0.0445189    
0.750982     0.0335363    0.000172826  0.0446567    
0.75338      0.0337472    0.000173339  0.0447944    
0.755778     0.0339587    0.000173852  0.0449321    
0.758176     0.0341708    0.000174365  0.0450697    
0.760574     0.0343835    0.000174878  0.0452073    
0.762972     0.0345968    0.00017539   0.0453448    
0.76537      0.0348108    0.000175901  0.0454823    
0.767768     0.0350254    0.000176413  0.0456197    
0.770166     0.0352406    0.000176924  0.0457571    
0.772564     0.0354564    0.000177434  0.0458945    
0.774962     0.0356729    0.000177945  0.0460318    
0.77736      0.03589      0.000178454  0.046169     
0.779758     0.0361077    0.000178964  0.0463062    
0.782156     0.036326     0.000179473  0.0464434    
0.784554     0.0365449    0.000179982  0.0465805    
0.786952     0.0367645    0.00018049   0.0467176    
0.78935      0.0369847    0.000180998  0.0468546    
0.791748     0.0372055    0.000181506  0.0469915    
0.794146     0.0374269    0.000182013  0.0471285    
0.796544     0.0376489    0.00018252   0.0472653    
0.798942     0.0378716    0.000183026  0.0474021    
0.80134      0.0380948    0.000183532  0.0475389    
0.803738     0.0383187    0.000184038  0.0476756    
0.806136     0.0385432    0.000184543  0.0478123    
0.808534     0.0387683    0.000185048  0.0479489    
0.810932     0.038994     0.000185552  0.0480855    
0.81333      0.0392204    0.000186057  0.048222     
0.815728     0.0394473    0.00018656   0.0483585    
0.818126     0.0396749    0.000187064  0.0484949    
0.820524     0.0399031    0.000187566  0.0486312    
0.822922     0.0401319    0.000188069  0.0487676    
0.82532      0.0403613    0.000188571  0.0489038    
0.827718     0.0405913    0.000189073  0.04904      
0.830116     0.040822     0.000189574  0.0491762    
0.832514     0.0410532    0.000190075  0.0493123    
0.834912     0.041285     0.000190576  0.0494484    
0.83731      0.0415175    0.000191076  0.0495844    
0.839708     0.0417506    0.000191575  0.0497203    
0.842106     0.0419842    0.000192075  0.0498562    
0.844504     0.0422185    0.000192574  0.0499921    
0.846902     0.0424534    0.000193072  0.0501279    
0.8493       0.0426889    0.00019357   0.0502637    
0.851698     0.042925     0.000194068  0.0503994    
0.854096     0.0431617    0.000194565  0.050535     
0.856494     0.0433991    0.000195062  0.0506706    
0.858892     0.043637     0.000195558  0.0508061    
0.86129      0.0438755    0.000196054  0.0509416    
0.863688     0.0441146    0.00019655   0.0510771    
0.866086     0.0443544    0.000197045  0.0512124    
0.868484     0.0445947    0.00019754   0.0513478    
0.870882     0.0448357    0.000198034  0.051483     
0.87328      0.0450772    0.000198528  0.0516183    
0.875678     0.0453193    0.000199022  0.0517534    
0.878076     0.0455621    0.000199515  0.0518885    
0.880474     0.0458054    0.000200007  0.0520236    
0.882872     0.0460494    0.0002005    0.0521586    
0.88527      0.0462939    0.000200991  0.0522936    
0.887668     0.0465391    0.000201483  0.0524284    
0.890066     0.0467848    0.000201974  0.0525633    
0.892464     0.0470311    0.000202464  0.0526981    
0.894862     0.0472781    0.000202954  0.0528328    
0.89726      0.0475256    0.000203444  0.0529675    
