# Mass = 0.0479598 Mev*(hbarc)^2/2 
# R = 7.46549 fm 
# a = 0.662 fm 
# V0 = 59.5769 MeV 
# RSO = 6.87299 fm 
# aSO = 0.662 fm 
# VSO = 28.0171 MeV fm^2
# Rc = 7.46549 fm
# Zc = 81
# n = 0 
# l = 5 
# two_j = 11 
# two_t = 1 
# Energy = -9.60786 MeV
# r          u            Phi          u/r          
0.01         1.33428e-16  6.53663e-15  1.33428e-14  
0.012398     4.84571e-16  1.91474e-14  3.90846e-14  
0.014796     1.39995e-15  4.63523e-14  9.46166e-14  
0.017194     3.44751e-15  9.82274e-14  2.00507e-13  
0.019592     7.54597e-15  1.88686e-13  3.85156e-13  
0.02199      1.50866e-14  3.361e-13    6.86067e-13  
0.024388     2.80734e-14  5.63924e-13  1.15112e-12  
0.026786     4.92813e-14  9.01312e-13  1.83982e-12  
0.029184     8.2433e-14   1.38375e-12  2.8246e-12   
0.031582     1.32394e-13  2.05365e-12  4.19206e-12  
0.03398      2.05384e-13  2.96101e-12  6.04426e-12  
0.036378     3.09211e-13  4.16402e-12  8.49995e-12  
0.038776     4.5352e-13   5.72966e-12  1.16959e-11  
0.041174     6.50059e-13  7.73434e-12  1.57881e-11  
0.043572     9.12967e-13  1.02645e-11  2.09531e-11  
0.04597      1.25908e-12  1.34174e-11  2.73891e-11  
0.048368     1.70824e-12  1.73014e-11  3.53176e-11  
0.050766     2.28367e-12  2.20368e-11  4.49842e-11  
0.053164     3.01229e-12  2.77565e-11  5.66602e-11  
0.055562     3.92511e-12  3.46065e-11  7.06438e-11  
0.05796      5.05765e-12  4.27467e-11  8.72611e-11  
0.060358     6.45033e-12  5.23512e-11  1.06868e-10  
0.062756     8.14888e-12  6.36093e-11  1.2985e-10   
0.065154     1.02048e-11  7.67257e-11  1.56627e-10  
0.067552     1.2676e-11   9.19216e-11  1.87648e-10  
0.06995      1.56269e-11  1.09435e-10  2.23401e-10  
0.072348     1.91293e-11  1.29521e-10  2.64406e-10  
0.074746     2.32626e-11  1.52453e-10  3.11223e-10  
0.077144     2.81149e-11  1.78524e-10  3.64447e-10  
0.079542     3.37827e-11  2.08046e-10  4.24715e-10  
0.08194      4.03723e-11  2.41349e-10  4.92705e-10  
0.084338     4.79997e-11  2.78786e-10  5.69135e-10  
0.086736     5.67919e-11  3.2073e-10   6.54767e-10  
0.089134     6.6887e-11   3.67576e-10  7.50409e-10  
0.091532     7.84349e-11  4.19742e-10  8.56913e-10  
0.09393      9.15985e-11  4.77669e-10  9.75178e-10  
0.096328     1.06554e-10  5.4182e-10   1.10615e-09  
0.098726     1.2349e-10   6.12684e-10  1.25084e-09  
0.101124     1.42613e-10  6.90775e-10  1.41027e-09  
0.103522     1.64141e-10  7.76631e-10  1.58557e-09  
0.10592      1.88312e-10  8.70818e-10  1.77787e-09  
0.108318     2.15379e-10  9.73926e-10  1.9884e-09   
0.110716     2.45613e-10  1.08657e-09  2.21841e-09  
0.113114     2.79303e-10  1.20941e-09  2.46922e-09  
0.115512     3.16759e-10  1.34311e-09  2.74222e-09  
0.11791      3.58309e-10  1.48838e-09  3.03884e-09  
0.120308     4.04305e-10  1.64595e-09  3.36058e-09  
0.122706     4.55118e-10  1.81659e-09  3.70901e-09  
0.125104     5.11145e-10  2.00109e-09  4.08576e-09  
0.127502     5.72804e-10  2.20029e-09  4.49251e-09  
0.1299       6.40539e-10  2.41503e-09  4.93102e-09  
0.132298     7.14821e-10  2.64621e-09  5.40311e-09  
0.134696     7.96144e-10  2.89477e-09  5.91068e-09  
0.137094     8.85035e-10  3.16165e-09  6.45568e-09  
0.139492     9.82045e-10  3.44786e-09  7.04015e-09  
0.14189      1.08776e-09  3.75442e-09  7.6662e-09   
0.144288     1.20278e-09  4.0824e-09   8.336e-09    
0.146686     1.32777e-09  4.4329e-09   9.0518e-09   
0.149084     1.4634e-09   4.80706e-09  9.81594e-09  
0.151482     1.61038e-09  5.20606e-09  1.06308e-08  
0.15388      1.76945e-09  5.63111e-09  1.14989e-08  
0.156278     1.94141e-09  6.08347e-09  1.24228e-08  
0.158676     2.12707e-09  6.56443e-09  1.34051e-08  
0.161074     2.32729e-09  7.07532e-09  1.44486e-08  
0.163472     2.54297e-09  7.61752e-09  1.5556e-08   
0.16587      2.77505e-09  8.19244e-09  1.67303e-08  
0.168268     3.02452e-09  8.80155e-09  1.79744e-08  
0.170666     3.29239e-09  9.44634e-09  1.92914e-08  
0.173064     3.57975e-09  1.01283e-08  2.06845e-08  
0.175462     3.8877e-09   1.08492e-08  2.21569e-08  
0.17786      4.21741e-09  1.16104e-08  2.3712e-08   
0.180258     4.57009e-09  1.24138e-08  2.53531e-08  
0.182656     4.94701e-09  1.3261e-08   2.70838e-08  
0.185054     5.34948e-09  1.41539e-08  2.89077e-08  
0.187452     5.77886e-09  1.50941e-08  3.08285e-08  
0.18985      6.23657e-09  1.60837e-08  3.285e-08    
0.192248     6.72409e-09  1.71244e-08  3.49761e-08  
0.194646     7.24296e-09  1.82183e-08  3.72109e-08  
0.197044     7.79475e-09  1.93673e-08  3.95584e-08  
0.199442     8.38113e-09  2.05735e-08  4.20229e-08  
0.20184      9.00379e-09  2.18391e-08  4.46086e-08  
0.204238     9.66453e-09  2.31661e-08  4.73199e-08  
0.206636     1.03652e-08  2.45569e-08  5.01615e-08  
0.209034     1.11076e-08  2.60135e-08  5.31378e-08  
0.211432     1.18938e-08  2.75384e-08  5.62537e-08  
0.21383      1.27259e-08  2.9134e-08   5.9514e-08   
0.216228     1.36058e-08  3.08026e-08  6.29236e-08  
0.218626     1.45359e-08  3.25467e-08  6.64876e-08  
0.221024     1.55184e-08  3.43689e-08  7.02112e-08  
0.223422     1.65555e-08  3.62716e-08  7.40997e-08  
0.22582      1.76497e-08  3.82577e-08  7.81584e-08  
0.228218     1.88035e-08  4.03297e-08  8.23929e-08  
0.230616     2.00195e-08  4.24905e-08  8.68089e-08  
0.233014     2.13003e-08  4.47428e-08  9.1412e-08   
0.235412     2.26486e-08  4.70895e-08  9.62082e-08  
0.23781      2.40672e-08  4.95336e-08  1.01204e-07  
0.240208     2.55591e-08  5.20779e-08  1.06404e-07  
0.242606     2.71272e-08  5.47257e-08  1.11816e-07  
0.245004     2.87747e-08  5.74799e-08  1.17446e-07  
0.247402     3.05046e-08  6.03438e-08  1.233e-07    
0.2498       3.23203e-08  6.33206e-08  1.29385e-07  
0.252198     3.42251e-08  6.64136e-08  1.35707e-07  
0.254596     3.62225e-08  6.96261e-08  1.42274e-07  
0.256994     3.83161e-08  7.29615e-08  1.49093e-07  
0.259392     4.05094e-08  7.64235e-08  1.56171e-07  
0.26179      4.28063e-08  8.00154e-08  1.63514e-07  
0.264188     4.52107e-08  8.3741e-08   1.71131e-07  
0.266586     4.77265e-08  8.76038e-08  1.79029e-07  
0.268984     5.03578e-08  9.16077e-08  1.87215e-07  
0.271382     5.31089e-08  9.57565e-08  1.95698e-07  
0.27378      5.59839e-08  1.00054e-07  2.04485e-07  
0.276178     5.89874e-08  1.04504e-07  2.13585e-07  
0.278576     6.21239e-08  1.09111e-07  2.23005e-07  
0.280974     6.5398e-08   1.13879e-07  2.32755e-07  
0.283372     6.88146e-08  1.18812e-07  2.42842e-07  
0.28577      7.23785e-08  1.23913e-07  2.53275e-07  
0.288168     7.60948e-08  1.29189e-07  2.64064e-07  
0.290566     7.99687e-08  1.34642e-07  2.75217e-07  
0.292964     8.40053e-08  1.40277e-07  2.86743e-07  
0.295362     8.82102e-08  1.461e-07    2.98651e-07  
0.29776      9.25889e-08  1.52114e-07  3.10951e-07  
0.300158     9.71471e-08  1.58323e-07  3.23653e-07  
0.302556     1.01891e-07  1.64734e-07  3.36766e-07  
0.304954     1.06825e-07  1.7135e-07   3.503e-07    
0.307352     1.11958e-07  1.78177e-07  3.64265e-07  
0.30975      1.17293e-07  1.85219e-07  3.78671e-07  
0.312148     1.22839e-07  1.92482e-07  3.93529e-07  
0.314546     1.28602e-07  1.9997e-07   4.08849e-07  
0.316944     1.34587e-07  2.07689e-07  4.24641e-07  
0.319342     1.40803e-07  2.15644e-07  4.40917e-07  
0.32174      1.47256e-07  2.23841e-07  4.57688e-07  
0.324138     1.53954e-07  2.32284e-07  4.74964e-07  
0.326536     1.60903e-07  2.4098e-07   4.92757e-07  
0.328934     1.68111e-07  2.49933e-07  5.11079e-07  
0.331332     1.75586e-07  2.59151e-07  5.29941e-07  
0.33373      1.83336e-07  2.68637e-07  5.49355e-07  
0.336128     1.91368e-07  2.78399e-07  5.69332e-07  
0.338526     1.99692e-07  2.88442e-07  5.89886e-07  
0.340924     2.08314e-07  2.98772e-07  6.11028e-07  
0.343322     2.17244e-07  3.09395e-07  6.32771e-07  
0.34572      2.2649e-07   3.20318e-07  6.55127e-07  
0.348118     2.36062e-07  3.31546e-07  6.78109e-07  
0.350516     2.45968e-07  3.43086e-07  7.01731e-07  
0.352914     2.56218e-07  3.54944e-07  7.26006e-07  
0.355312     2.6682e-07   3.67127e-07  7.50946e-07  
0.35771      2.77785e-07  3.79641e-07  7.76566e-07  
0.360108     2.89123e-07  3.92494e-07  8.02879e-07  
0.362506     3.00843e-07  4.05692e-07  8.29899e-07  
0.364904     3.12956e-07  4.19241e-07  8.5764e-07   
0.367302     3.25473e-07  4.33148e-07  8.86117e-07  
0.3697       3.38403e-07  4.47422e-07  9.15344e-07  
0.372098     3.51757e-07  4.62068e-07  9.45335e-07  
0.374496     3.65548e-07  4.77094e-07  9.76106e-07  
0.376894     3.79785e-07  4.92508e-07  1.00767e-06  
0.379292     3.94481e-07  5.08316e-07  1.04005e-06  
0.38169      4.09647e-07  5.24527e-07  1.07324e-06  
0.384088     4.25295e-07  5.41147e-07  1.10728e-06  
0.386486     4.41437e-07  5.58184e-07  1.14218e-06  
0.388884     4.58086e-07  5.75647e-07  1.17795e-06  
0.391282     4.75254e-07  5.93543e-07  1.21461e-06  
0.39368      4.92954e-07  6.11879e-07  1.25217e-06  
0.396078     5.112e-07    6.30665e-07  1.29065e-06  
0.398476     5.30003e-07  6.49908e-07  1.33008e-06  
0.400874     5.49379e-07  6.69616e-07  1.37045e-06  
0.403272     5.6934e-07   6.89798e-07  1.4118e-06   
0.40567      5.89901e-07  7.10461e-07  1.45414e-06  
0.408068     6.11077e-07  7.31616e-07  1.49749e-06  
0.410466     6.32881e-07  7.5327e-07   1.54186e-06  
0.412864     6.55328e-07  7.75431e-07  1.58727e-06  
0.415262     6.78433e-07  7.9811e-07   1.63375e-06  
0.41766      7.02213e-07  8.21314e-07  1.6813e-06   
0.420058     7.26682e-07  8.45053e-07  1.72996e-06  
0.422456     7.51856e-07  8.69336e-07  1.77973e-06  
0.424854     7.77751e-07  8.94172e-07  1.83063e-06  
0.427252     8.04384e-07  9.1957e-07   1.88269e-06  
0.42965      8.31771e-07  9.45539e-07  1.93593e-06  
0.432048     8.59929e-07  9.7209e-07   1.99036e-06  
0.434446     8.88876e-07  9.99232e-07  2.046e-06    
0.436844     9.18629e-07  1.02697e-06  2.10288e-06  
0.439242     9.49205e-07  1.05533e-06  2.16101e-06  
0.44164      9.80623e-07  1.0843e-06   2.22041e-06  
0.444038     1.0129e-06   1.1139e-06   2.28112e-06  
0.446436     1.04606e-06  1.14415e-06  2.34313e-06  
0.448834     1.08011e-06  1.17504e-06  2.40649e-06  
0.451232     1.11509e-06  1.2066e-06   2.4712e-06   
0.45363      1.15099e-06  1.23883e-06  2.5373e-06   
0.456028     1.18786e-06  1.27174e-06  2.6048e-06   
0.458426     1.2257e-06   1.30534e-06  2.67372e-06  
0.460824     1.26454e-06  1.33965e-06  2.74409e-06  
0.463222     1.3044e-06   1.37467e-06  2.81592e-06  
0.46562      1.34529e-06  1.41041e-06  2.88925e-06  
0.468018     1.38725e-06  1.44689e-06  2.9641e-06   
0.470416     1.43029e-06  1.48412e-06  3.04048e-06  
0.472814     1.47443e-06  1.52211e-06  3.11842e-06  
0.475212     1.5197e-06   1.56087e-06  3.19795e-06  
0.47761      1.56613e-06  1.60042e-06  3.27909e-06  
0.480008     1.61372e-06  1.64075e-06  3.36186e-06  
0.482406     1.66251e-06  1.68189e-06  3.44629e-06  
0.484804     1.71252e-06  1.72385e-06  3.5324e-06   
0.487202     1.76377e-06  1.76664e-06  3.62021e-06  
0.4896       1.8163e-06   1.81026e-06  3.70976e-06  
0.491998     1.87011e-06  1.85475e-06  3.80106e-06  
0.494396     1.92525e-06  1.90009e-06  3.89415e-06  
0.496794     1.98173e-06  1.94632e-06  3.98904e-06  
0.499192     2.03958e-06  1.99344e-06  4.08577e-06  
0.50159      2.09883e-06  2.04146e-06  4.18436e-06  
0.503988     2.15951e-06  2.09039e-06  4.28484e-06  
0.506386     2.22163e-06  2.14026e-06  4.38723e-06  
0.508784     2.28523e-06  2.19107e-06  4.49156e-06  
0.511182     2.35034e-06  2.24283e-06  4.59785e-06  
0.51358      2.41698e-06  2.29556e-06  4.70615e-06  
0.515978     2.48519e-06  2.34928e-06  4.81646e-06  
0.518376     2.55499e-06  2.40399e-06  4.92883e-06  
0.520774     2.62641e-06  2.45971e-06  5.04327e-06  
0.523172     2.69948e-06  2.51645e-06  5.15982e-06  
0.52557      2.77423e-06  2.57422e-06  5.27851e-06  
0.527968     2.85069e-06  2.63305e-06  5.39937e-06  
0.530366     2.9289e-06   2.69294e-06  5.52241e-06  
0.532764     3.00888e-06  2.75392e-06  5.64769e-06  
0.535162     3.09067e-06  2.81598e-06  5.77521e-06  
0.53756      3.1743e-06   2.87915e-06  5.90502e-06  
0.539958     3.2598e-06   2.94345e-06  6.03714e-06  
0.542356     3.34721e-06  3.00888e-06  6.1716e-06   
0.544754     3.43655e-06  3.07546e-06  6.30845e-06  
0.547152     3.52787e-06  3.14321e-06  6.44769e-06  
0.54955      3.62119e-06  3.21214e-06  6.58937e-06  
0.551948     3.71656e-06  3.28226e-06  6.73352e-06  
0.554346     3.814e-06    3.3536e-06   6.88018e-06  
0.556744     3.91355e-06  3.42617e-06  7.02936e-06  
0.559142     4.01526e-06  3.49997e-06  7.18111e-06  
0.56154      4.11915e-06  3.57504e-06  7.33545e-06  
0.563938     4.22526e-06  3.65138e-06  7.49243e-06  
0.566336     4.33364e-06  3.72901e-06  7.65207e-06  
0.568734     4.44432e-06  3.80795e-06  7.8144e-06   
0.571132     4.55733e-06  3.88821e-06  7.97946e-06  
0.57353      4.67272e-06  3.96981e-06  8.14729e-06  
0.575928     4.79052e-06  4.05276e-06  8.31792e-06  
0.578326     4.91078e-06  4.13709e-06  8.49138e-06  
0.580724     5.03354e-06  4.2228e-06   8.6677e-06   
0.583122     5.15884e-06  4.30992e-06  8.84693e-06  
0.58552      5.28672e-06  4.39846e-06  9.0291e-06   
0.587918     5.41721e-06  4.48844e-06  9.21423e-06  
0.590316     5.55038e-06  4.57988e-06  9.40238e-06  
0.592714     5.68624e-06  4.67278e-06  9.59357e-06  
0.595112     5.82486e-06  4.76718e-06  9.78785e-06  
0.59751      5.96628e-06  4.86309e-06  9.98524e-06  
0.599908     6.11053e-06  4.96053e-06  1.01858e-05  
0.602306     6.25767e-06  5.05951e-06  1.03895e-05  
0.604704     6.40774e-06  5.16005e-06  1.05965e-05  
0.607102     6.56078e-06  5.26217e-06  1.08067e-05  
0.6095       6.71684e-06  5.36589e-06  1.10203e-05  
0.611898     6.87598e-06  5.47123e-06  1.12371e-05  
0.614296     7.03823e-06  5.5782e-06   1.14574e-05  
0.616694     7.20365e-06  5.68682e-06  1.16811e-05  
0.619092     7.37229e-06  5.79712e-06  1.19082e-05  
0.62149      7.54418e-06  5.90911e-06  1.21389e-05  
0.623888     7.7194e-06   6.02281e-06  1.2373e-05   
0.626286     7.89797e-06  6.13824e-06  1.26108e-05  
0.628684     8.07997e-06  6.25542e-06  1.28522e-05  
0.631082     8.26543e-06  6.37436e-06  1.30972e-05  
0.63348      8.45441e-06  6.4951e-06   1.3346e-05   
0.635878     8.64696e-06  6.61764e-06  1.35985e-05  
0.638276     8.84314e-06  6.74201e-06  1.38547e-05  
0.640674     9.04299e-06  6.86822e-06  1.41148e-05  
0.643072     9.24658e-06  6.99631e-06  1.43788e-05  
0.64547      9.45397e-06  7.12628e-06  1.46466e-05  
0.647868     9.66519e-06  7.25816e-06  1.49185e-05  
0.650266     9.88032e-06  7.39197e-06  1.51943e-05  
0.652664     1.00994e-05  7.52772e-06  1.54741e-05  
0.655062     1.03225e-05  7.66545e-06  1.57581e-05  
0.65746      1.05497e-05  7.80517e-06  1.60461e-05  
0.659858     1.0781e-05   7.9469e-06   1.63384e-05  
0.662256     1.10165e-05  8.09066e-06  1.66348e-05  
0.664654     1.12562e-05  8.23648e-06  1.69355e-05  
0.667052     1.15003e-05  8.38437e-06  1.72405e-05  
0.66945      1.17488e-05  8.53436e-06  1.75499e-05  
0.671848     1.20016e-05  8.68647e-06  1.78636e-05  
0.674246     1.2259e-05   8.84072e-06  1.81818e-05  
0.676644     1.25209e-05  8.99714e-06  1.85045e-05  
0.679042     1.27875e-05  9.15574e-06  1.88317e-05  
0.68144      1.30588e-05  9.31654e-06  1.91635e-05  
0.683838     1.33348e-05  9.47958e-06  1.94999e-05  
0.686236     1.36156e-05  9.64487e-06  1.9841e-05   
0.688634     1.39013e-05  9.81244e-06  2.01868e-05  
0.691032     1.4192e-05   9.9823e-06   2.05374e-05  
0.69343      1.44877e-05  1.01545e-05  2.08928e-05  
0.695828     1.47885e-05  1.0329e-05   2.12531e-05  
0.698226     1.50944e-05  1.05059e-05  2.16183e-05  
0.700624     1.54056e-05  1.06852e-05  2.19884e-05  
0.703022     1.57221e-05  1.08669e-05  2.23636e-05  
0.70542      1.60439e-05  1.1051e-05   2.27438e-05  
0.707818     1.63712e-05  1.12376e-05  2.31292e-05  
0.710216     1.67041e-05  1.14267e-05  2.35197e-05  
0.712614     1.70425e-05  1.16183e-05  2.39154e-05  
0.715012     1.73865e-05  1.18125e-05  2.43164e-05  
0.71741      1.77363e-05  1.20092e-05  2.47227e-05  
0.719808     1.8092e-05   1.22084e-05  2.51344e-05  
0.722206     1.84535e-05  1.24103e-05  2.55515e-05  
0.724604     1.88209e-05  1.26148e-05  2.59741e-05  
0.727002     1.91945e-05  1.2822e-05   2.64022e-05  
0.7294       1.95741e-05  1.30319e-05  2.68359e-05  
0.731798     1.996e-05    1.32445e-05  2.72753e-05  
0.734196     2.03521e-05  1.34598e-05  2.77203e-05  
0.736594     2.07506e-05  1.36778e-05  2.8171e-05   
0.738992     2.11556e-05  1.38987e-05  2.86276e-05  
0.74139      2.1567e-05   1.41223e-05  2.909e-05    
0.743788     2.19851e-05  1.43488e-05  2.95583e-05  
0.746186     2.24099e-05  1.45782e-05  3.00326e-05  
0.748584     2.28414e-05  1.48104e-05  3.05129e-05  
0.750982     2.32799e-05  1.50456e-05  3.09992e-05  
0.75338      2.37252e-05  1.52837e-05  3.14917e-05  
0.755778     2.41776e-05  1.55248e-05  3.19904e-05  
0.758176     2.46372e-05  1.57689e-05  3.24953e-05  
0.760574     2.51039e-05  1.6016e-05   3.30065e-05  
0.762972     2.5578e-05   1.62661e-05  3.35241e-05  
0.76537      2.60594e-05  1.65194e-05  3.40481e-05  
0.767768     2.65483e-05  1.67757e-05  3.45786e-05  
0.770166     2.70448e-05  1.70352e-05  3.51156e-05  
0.772564     2.7549e-05   1.72978e-05  3.56592e-05  
0.774962     2.80609e-05  1.75636e-05  3.62094e-05  
0.77736      2.85807e-05  1.78327e-05  3.67663e-05  
0.779758     2.91084e-05  1.8105e-05   3.733e-05    
0.782156     2.96442e-05  1.83805e-05  3.79006e-05  
0.784554     3.01881e-05  1.86594e-05  3.8478e-05   
0.786952     3.07402e-05  1.89416e-05  3.90624e-05  
0.78935      3.13007e-05  1.92271e-05  3.96538e-05  
0.791748     3.18696e-05  1.95161e-05  4.02523e-05  
0.794146     3.24471e-05  1.98084e-05  4.08579e-05  
0.796544     3.30332e-05  2.01042e-05  4.14707e-05  
0.798942     3.3628e-05   2.04035e-05  4.20907e-05  
0.80134      3.42317e-05  2.07063e-05  4.27181e-05  
0.803738     3.48443e-05  2.10126e-05  4.33529e-05  
0.806136     3.5466e-05   2.13225e-05  4.39951e-05  
0.808534     3.60968e-05  2.1636e-05   4.46448e-05  
0.810932     3.67369e-05  2.19531e-05  4.53021e-05  
0.81333      3.73864e-05  2.22739e-05  4.5967e-05   
0.815728     3.80453e-05  2.25984e-05  4.66397e-05  
0.818126     3.87138e-05  2.29266e-05  4.73201e-05  
0.820524     3.9392e-05   2.32585e-05  4.80084e-05  
0.822922     4.008e-05    2.35942e-05  4.87045e-05  
0.82532      4.07779e-05  2.39337e-05  4.94086e-05  
0.827718     4.14859e-05  2.42771e-05  5.01208e-05  
0.830116     4.2204e-05   2.46243e-05  5.08411e-05  
0.832514     4.29323e-05  2.49754e-05  5.15695e-05  
0.834912     4.3671e-05   2.53305e-05  5.23062e-05  
0.83731      4.44202e-05  2.56895e-05  5.30511e-05  
0.839708     4.51801e-05  2.60526e-05  5.38045e-05  
0.842106     4.59506e-05  2.64197e-05  5.45663e-05  
0.844504     4.6732e-05   2.67908e-05  5.53366e-05  
0.846902     4.75243e-05  2.7166e-05   5.61154e-05  
0.8493       4.83277e-05  2.75454e-05  5.6903e-05   
0.851698     4.91423e-05  2.79289e-05  5.76992e-05  
0.854096     4.99682e-05  2.83167e-05  5.85042e-05  
0.856494     5.08056e-05  2.87086e-05  5.93181e-05  
0.858892     5.16546e-05  2.91048e-05  6.0141e-05   
0.86129      5.25153e-05  2.95053e-05  6.09728e-05  
0.863688     5.33877e-05  2.99102e-05  6.18137e-05  
0.866086     5.42722e-05  3.03194e-05  6.26637e-05  
0.868484     5.51687e-05  3.0733e-05   6.3523e-05   
0.870882     5.60774e-05  3.1151e-05   6.43915e-05  
0.87328      5.69985e-05  3.15735e-05  6.52695e-05  
0.875678     5.79321e-05  3.20005e-05  6.61568e-05  
0.878076     5.88782e-05  3.2432e-05   6.70537e-05  
0.880474     5.98371e-05  3.28681e-05  6.79601e-05  
0.882872     6.08089e-05  3.33088e-05  6.88762e-05  
0.88527      6.17937e-05  3.37541e-05  6.98021e-05  
0.887668     6.27916e-05  3.42041e-05  7.07377e-05  
0.890066     6.38028e-05  3.46588e-05  7.16833e-05  
0.892464     6.48275e-05  3.51183e-05  7.26388e-05  
0.894862     6.58657e-05  3.55825e-05  7.36043e-05  
0.89726      6.69176e-05  3.60516e-05  7.458e-05    
