# Mass = 0.0473905 Mev*(hbarc)^2/2 
# R = 4.82059 fm 
# a = 0.662 fm 
# V0 = 50.276 MeV 
# RSO = 4.43035 fm 
# aSO = 0.662 fm 
# VSO = 28.6062 MeV fm^2
# l = 1 
# two_j = 3 
# two_t = -1 
# Energy = -32.0795 MeV
# r 	 V_eff [2m/hbar/hbar]
0.1 	4169.71
0.10238 	3975.78
0.10476 	3794.92
0.10714 	3625.98
0.10952 	3467.93
0.1119 	3319.86
0.11428 	3180.94
0.11666 	3050.44
0.11904 	2927.69
0.12142 	2812.08
0.1238 	2703.08
0.12618 	2600.19
0.12856 	2502.96
0.13094 	2410.98
0.13332 	2323.89
0.1357 	2241.34
0.13808 	2163.01
0.14046 	2088.64
0.14284 	2017.95
0.14522 	1950.72
0.1476 	1886.7
0.14998 	1825.71
0.15236 	1767.56
0.15474 	1712.07
0.15712 	1659.08
0.1595 	1608.44
0.16188 	1560.03
0.16426 	1513.7
0.16664 	1469.34
0.16902 	1426.84
0.1714 	1386.1
0.17378 	1347.03
0.17616 	1309.52
0.17854 	1273.51
0.18092 	1238.91
0.1833 	1205.65
0.18568 	1173.65
0.18806 	1142.87
0.19044 	1113.23
0.19282 	1084.69
0.1952 	1057.18
0.19758 	1030.66
0.19996 	1005.08
0.20234 	980.393
0.20472 	956.566
0.2071 	933.557
0.20948 	911.327
0.21186 	889.842
0.21424 	869.069
0.21662 	848.977
0.219 	829.537
0.22138 	810.72
0.22376 	792.5
0.22614 	774.853
0.22852 	757.754
0.2309 	741.181
0.23328 	725.113
0.23566 	709.529
0.23804 	694.411
0.24042 	679.739
0.2428 	665.497
0.24518 	651.667
0.24756 	638.234
0.24994 	625.183
0.25232 	612.5
0.2547 	600.171
0.25708 	588.182
0.25946 	576.522
0.26184 	565.178
0.26422 	554.14
0.2666 	543.396
0.26898 	532.936
0.27136 	522.749
0.27374 	512.828
0.27612 	503.162
0.2785 	493.742
0.28088 	484.561
0.28326 	475.611
0.28564 	466.883
0.28802 	458.371
0.2904 	450.067
0.29278 	441.965
0.29516 	434.058
0.29754 	426.34
0.29992 	418.805
0.3023 	411.448
0.30468 	404.262
0.30706 	397.243
0.30944 	390.385
0.31182 	383.683
0.3142 	377.133
0.31658 	370.73
0.31896 	364.47
0.32134 	358.349
0.32372 	352.362
0.3261 	346.506
0.32848 	340.777
0.33086 	335.171
0.33324 	329.684
0.33562 	324.314
0.338 	319.057
0.34038 	313.91
0.34276 	308.869
0.34514 	303.933
0.34752 	299.098
0.3499 	294.361
0.35228 	289.719
0.35466 	285.171
0.35704 	280.714
0.35942 	276.344
0.3618 	272.061
0.36418 	267.861
0.36656 	263.743
0.36894 	259.705
0.37132 	255.743
0.3737 	251.858
0.37608 	248.045
0.37846 	244.305
0.38084 	240.634
0.38322 	237.032
0.3856 	233.496
0.38798 	230.025
0.39036 	226.617
0.39274 	223.271
0.39512 	219.985
0.3975 	216.759
0.39988 	213.589
0.40226 	210.476
0.40464 	207.417
0.40702 	204.412
0.4094 	201.46
0.41178 	198.558
0.41416 	195.706
0.41654 	192.903
0.41892 	190.148
0.4213 	187.439
0.42368 	184.775
0.42606 	182.157
0.42844 	179.581
0.43082 	177.049
0.4332 	174.558
0.43558 	172.107
0.43796 	169.697
0.44034 	167.325
0.44272 	164.992
0.4451 	162.696
0.44748 	160.436
0.44986 	158.212
0.45224 	156.024
0.45462 	153.869
0.457 	151.748
0.45938 	149.66
0.46176 	147.605
0.46414 	145.581
0.46652 	143.587
0.4689 	141.624
0.47128 	139.691
0.47366 	137.787
0.47604 	135.911
0.47842 	134.063
0.4808 	132.242
0.48318 	130.449
0.48556 	128.681
0.48794 	126.94
0.49032 	125.224
0.4927 	123.532
0.49508 	121.865
0.49746 	120.222
0.49984 	118.602
0.50222 	117.005
0.5046 	115.431
0.50698 	113.879
0.50936 	112.349
0.51174 	110.839
0.51412 	109.351
0.5165 	107.884
0.51888 	106.436
0.52126 	105.008
0.52364 	103.6
0.52602 	102.211
0.5284 	100.84
0.53078 	99.4882
0.53316 	98.1542
0.53554 	96.8379
0.53792 	95.539
0.5403 	94.2573
0.54268 	92.9924
0.54506 	91.7441
0.54744 	90.512
0.54982 	89.2959
0.5522 	88.0954
0.55458 	86.9104
0.55696 	85.7406
0.55934 	84.5856
0.56172 	83.4454
0.5641 	82.3195
0.56648 	81.2078
0.56886 	80.11
0.57124 	79.0259
0.57362 	77.9553
0.576 	76.8979
0.57838 	75.8535
0.58076 	74.822
0.58314 	73.8031
0.58552 	72.7966
0.5879 	71.8023
0.59028 	70.8199
0.59266 	69.8494
0.59504 	68.8906
0.59742 	67.9432
0.5998 	67.007
0.60218 	66.0819
0.60456 	65.1677
0.60694 	64.2643
0.60932 	63.3714
0.6117 	62.4889
0.61408 	61.6167
0.61646 	60.7546
0.61884 	59.9024
0.62122 	59.0599
0.6236 	58.2271
0.62598 	57.4038
0.62836 	56.5898
0.63074 	55.7851
0.63312 	54.9894
0.6355 	54.2026
0.63788 	53.4246
0.64026 	52.6553
0.64264 	51.8945
0.64502 	51.1421
0.6474 	50.398
0.64978 	49.6621
0.65216 	48.9342
0.65454 	48.2142
0.65692 	47.5021
0.6593 	46.7977
0.66168 	46.1008
0.66406 	45.4114
0.66644 	44.7295
0.66882 	44.0547
0.6712 	43.3872
0.67358 	42.7267
0.67596 	42.0732
0.67834 	41.4265
0.68072 	40.7867
0.6831 	40.1535
0.68548 	39.5269
0.68786 	38.9068
0.69024 	38.2931
0.69262 	37.6857
0.695 	37.0845
0.69738 	36.4895
0.69976 	35.9006
0.70214 	35.3176
0.70452 	34.7406
0.7069 	34.1694
0.70928 	33.6039
0.71166 	33.044
0.71404 	32.4898
0.71642 	31.9411
0.7188 	31.3978
0.72118 	30.86
0.72356 	30.3274
0.72594 	29.8
0.72832 	29.2778
0.7307 	28.7607
0.73308 	28.2487
0.73546 	27.7416
0.73784 	27.2394
0.74022 	26.742
0.7426 	26.2494
0.74498 	25.7616
0.74736 	25.2784
0.74974 	24.7998
0.75212 	24.3257
0.7545 	23.8561
0.75688 	23.391
0.75926 	22.9302
0.76164 	22.4737
0.76402 	22.0215
0.7664 	21.5735
0.76878 	21.1297
0.77116 	20.69
0.77354 	20.2543
0.77592 	19.8226
0.7783 	19.3949
0.78068 	18.9711
0.78306 	18.5512
0.78544 	18.135
0.78782 	17.7227
0.7902 	17.3141
0.79258 	16.9091
0.79496 	16.5078
0.79734 	16.1101
0.79972 	15.7159
0.8021 	15.3252
0.80448 	14.938
0.80686 	14.5542
0.80924 	14.1738
0.81162 	13.7968
0.814 	13.4231
0.81638 	13.0526
0.81876 	12.6853
0.82114 	12.3213
0.82352 	11.9604
0.8259 	11.6026
0.82828 	11.2479
0.83066 	10.8963
0.83304 	10.5476
0.83542 	10.202
0.8378 	9.85927
0.84018 	9.51947
0.84256 	9.18255
0.84494 	8.84848
0.84732 	8.51723
0.8497 	8.18875
0.85208 	7.86303
0.85446 	7.54003
0.85684 	7.21972
0.85922 	6.90208
0.8616 	6.58706
0.86398 	6.27465
0.86636 	5.96482
0.86874 	5.65753
0.87112 	5.35276
0.8735 	5.05048
0.87588 	4.75067
0.87826 	4.45329
0.88064 	4.15833
0.88302 	3.86575
0.8854 	3.57553
0.88778 	3.28764
0.89016 	3.00207
0.89254 	2.71878
0.89492 	2.43775
0.8973 	2.15896
0.89968 	1.88238
0.90206 	1.60799
0.90444 	1.33577
0.90682 	1.0657
0.9092 	0.797744
0.91158 	0.531889
0.91396 	0.268113
0.91634 	0.00639299
0.91872 	-0.253292
0.9211 	-0.510962
0.92348 	-0.766639
0.92586 	-1.02034
0.92824 	-1.27209
0.93062 	-1.52191
0.933 	-1.76982
0.93538 	-2.01583
0.93776 	-2.25996
0.94014 	-2.50224
0.94252 	-2.74269
0.9449 	-2.98131
0.94728 	-3.21814
0.94966 	-3.45318
0.95204 	-3.68646
0.95442 	-3.91799
0.9568 	-4.14779
0.95918 	-4.37588
0.96156 	-4.60227
0.96394 	-4.82699
0.96632 	-5.05004
0.9687 	-5.27145
0.97108 	-5.49122
0.97346 	-5.70939
0.97584 	-5.92595
0.97822 	-6.14093
0.9806 	-6.35434
0.98298 	-6.56621
0.98536 	-6.77653
0.98774 	-6.98533
0.99012 	-7.19262
0.9925 	-7.39842
0.99488 	-7.60274
0.99726 	-7.8056
0.99964 	-8.007
1.00202 	-8.20697
1.0044 	-8.40551
1.00678 	-8.60264
1.00916 	-8.79838
1.01154 	-8.99273
1.01392 	-9.18571
1.0163 	-9.37733
1.01868 	-9.5676
1.02106 	-9.75654
1.02344 	-9.94416
1.02582 	-10.1305
1.0282 	-10.3155
1.03058 	-10.4992
1.03296 	-10.6817
1.03534 	-10.8629
1.03772 	-11.0428
1.0401 	-11.2215
1.04248 	-11.399
1.04486 	-11.5753
1.04724 	-11.7503
1.04962 	-11.9242
1.052 	-12.0969
1.05438 	-12.2684
1.05676 	-12.4388
1.05914 	-12.608
1.06152 	-12.776
1.0639 	-12.9429
1.06628 	-13.1088
1.06866 	-13.2735
1.07104 	-13.437
1.07342 	-13.5995
1.0758 	-13.761
1.07818 	-13.9213
1.08056 	-14.0806
1.08294 	-14.2388
1.08532 	-14.396
1.0877 	-14.5522
1.09008 	-14.7073
1.09246 	-14.8614
1.09484 	-15.0145
1.09722 	-15.1666
1.0996 	-15.3177
1.10198 	-15.4679
1.10436 	-15.617
1.10674 	-15.7652
1.10912 	-15.9124
1.1115 	-16.0587
1.11388 	-16.204
1.11626 	-16.3484
1.11864 	-16.4919
1.12102 	-16.6345
1.1234 	-16.7761
1.12578 	-16.9169
1.12816 	-17.0568
1.13054 	-17.1957
1.13292 	-17.3338
1.1353 	-17.471
1.13768 	-17.6074
1.14006 	-17.7429
1.14244 	-17.8775
1.14482 	-18.0113
1.1472 	-18.1443
1.14958 	-18.2764
1.15196 	-18.4077
1.15434 	-18.5382
1.15672 	-18.6679
1.1591 	-18.7968
1.16148 	-18.9249
1.16386 	-19.0522
1.16624 	-19.1787
1.16862 	-19.3044
1.171 	-19.4294
1.17338 	-19.5536
1.17576 	-19.677
1.17814 	-19.7997
1.18052 	-19.9217
1.1829 	-20.0429
1.18528 	-20.1633
1.18766 	-20.2831
1.19004 	-20.4021
1.19242 	-20.5204
1.1948 	-20.638
1.19718 	-20.7549
1.19956 	-20.871
1.20194 	-20.9865
1.20432 	-21.1013
1.2067 	-21.2155
1.20908 	-21.3289
1.21146 	-21.4417
1.21384 	-21.5538
1.21622 	-21.6652
1.2186 	-21.776
1.22098 	-21.8861
1.22336 	-21.9956
1.22574 	-22.1044
1.22812 	-22.2126
1.2305 	-22.3202
1.23288 	-22.4271
1.23526 	-22.5334
1.23764 	-22.6391
1.24002 	-22.7442
1.2424 	-22.8487
1.24478 	-22.9525
1.24716 	-23.0558
1.24954 	-23.1585
1.25192 	-23.2606
1.2543 	-23.3621
1.25668 	-23.463
1.25906 	-23.5633
1.26144 	-23.6631
1.26382 	-23.7623
1.2662 	-23.8609
1.26858 	-23.959
1.27096 	-24.0565
1.27334 	-24.1535
1.27572 	-24.2499
1.2781 	-24.3458
1.28048 	-24.4411
1.28286 	-24.5359
1.28524 	-24.6302
1.28762 	-24.7239
1.29 	-24.8171
1.29238 	-24.9098
1.29476 	-25.002
1.29714 	-25.0937
1.29952 	-25.1849
1.3019 	-25.2755
1.30428 	-25.3657
1.30666 	-25.4553
1.30904 	-25.5445
1.31142 	-25.6331
1.3138 	-25.7213
1.31618 	-25.809
1.31856 	-25.8962
1.32094 	-25.983
1.32332 	-26.0692
1.3257 	-26.155
1.32808 	-26.2404
1.33046 	-26.3252
1.33284 	-26.4096
1.33522 	-26.4936
1.3376 	-26.5771
1.33998 	-26.6601
1.34236 	-26.7427
1.34474 	-26.8249
1.34712 	-26.9066
1.3495 	-26.9879
1.35188 	-27.0687
1.35426 	-27.1491
1.35664 	-27.2291
1.35902 	-27.3087
1.3614 	-27.3878
1.36378 	-27.4665
1.36616 	-27.5448
1.36854 	-27.6227
1.37092 	-27.7002
1.3733 	-27.7772
1.37568 	-27.8539
1.37806 	-27.9301
1.38044 	-28.006
1.38282 	-28.0814
1.3852 	-28.1565
1.38758 	-28.2311
1.38996 	-28.3054
1.39234 	-28.3793
1.39472 	-28.4528
1.3971 	-28.5259
1.39948 	-28.5987
1.40186 	-28.671
1.40424 	-28.743
1.40662 	-28.8147
1.409 	-28.8859
1.41138 	-28.9568
1.41376 	-29.0273
1.41614 	-29.0975
1.41852 	-29.1673
1.4209 	-29.2367
1.42328 	-29.3058
1.42566 	-29.3745
1.42804 	-29.4429
1.43042 	-29.511
1.4328 	-29.5787
1.43518 	-29.646
1.43756 	-29.713
1.43994 	-29.7797
1.44232 	-29.846
1.4447 	-29.912
1.44708 	-29.9777
1.44946 	-30.043
1.45184 	-30.108
1.45422 	-30.1727
1.4566 	-30.2371
1.45898 	-30.3011
1.46136 	-30.3648
1.46374 	-30.4282
1.46612 	-30.4913
1.4685 	-30.5541
1.47088 	-30.6166
1.47326 	-30.6787
1.47564 	-30.7406
1.47802 	-30.8021
1.4804 	-30.8633
1.48278 	-30.9243
1.48516 	-30.9849
1.48754 	-31.0452
1.48992 	-31.1053
1.4923 	-31.165
1.49468 	-31.2245
1.49706 	-31.2836
1.49944 	-31.3425
1.50182 	-31.4011
1.5042 	-31.4594
1.50658 	-31.5174
1.50896 	-31.5751
1.51134 	-31.6326
1.51372 	-31.6898
1.5161 	-31.7467
1.51848 	-31.8033
1.52086 	-31.8597
1.52324 	-31.9157
1.52562 	-31.9715
1.528 	-32.0271
1.53038 	-32.0824
1.53276 	-32.1374
1.53514 	-32.1921
1.53752 	-32.2466
1.5399 	-32.3008
1.54228 	-32.3548
1.54466 	-32.4085
1.54704 	-32.462
1.54942 	-32.5152
1.5518 	-32.5681
1.55418 	-32.6208
1.55656 	-32.6733
1.55894 	-32.7255
1.56132 	-32.7775
1.5637 	-32.8292
1.56608 	-32.8806
1.56846 	-32.9319
1.57084 	-32.9828
1.57322 	-33.0336
1.5756 	-33.0841
1.57798 	-33.1344
1.58036 	-33.1844
1.58274 	-33.2342
1.58512 	-33.2838
1.5875 	-33.3331
1.58988 	-33.3822
1.59226 	-33.4311
1.59464 	-33.4798
1.59702 	-33.5282
1.5994 	-33.5764
1.60178 	-33.6244
1.60416 	-33.6722
1.60654 	-33.7197
1.60892 	-33.767
1.6113 	-33.8141
1.61368 	-33.861
1.61606 	-33.9077
1.61844 	-33.9541
1.62082 	-34.0004
1.6232 	-34.0464
1.62558 	-34.0922
1.62796 	-34.1379
1.63034 	-34.1833
1.63272 	-34.2285
1.6351 	-34.2734
1.63748 	-34.3182
1.63986 	-34.3628
1.64224 	-34.4072
1.64462 	-34.4514
1.647 	-34.4954
1.64938 	-34.5391
1.65176 	-34.5827
1.65414 	-34.6261
1.65652 	-34.6693
1.6589 	-34.7123
1.66128 	-34.7551
1.66366 	-34.7977
1.66604 	-34.8401
1.66842 	-34.8824
1.6708 	-34.9244
1.67318 	-34.9662
1.67556 	-35.0079
1.67794 	-35.0494
1.68032 	-35.0907
1.6827 	-35.1318
1.68508 	-35.1727
1.68746 	-35.2135
1.68984 	-35.254
1.69222 	-35.2944
1.6946 	-35.3346
1.69698 	-35.3746
1.69936 	-35.4145
1.70174 	-35.4541
1.70412 	-35.4936
1.7065 	-35.5329
1.70888 	-35.5721
1.71126 	-35.6111
1.71364 	-35.6499
1.71602 	-35.6885
1.7184 	-35.727
1.72078 	-35.7652
1.72316 	-35.8034
1.72554 	-35.8413
1.72792 	-35.8791
1.7303 	-35.9167
1.73268 	-35.9542
1.73506 	-35.9915
1.73744 	-36.0286
1.73982 	-36.0656
1.7422 	-36.1024
1.74458 	-36.1391
1.74696 	-36.1755
1.74934 	-36.2119
1.75172 	-36.248
1.7541 	-36.2841
1.75648 	-36.3199
1.75886 	-36.3556
1.76124 	-36.3912
1.76362 	-36.4266
1.766 	-36.4618
1.76838 	-36.4969
1.77076 	-36.5318
1.77314 	-36.5666
1.77552 	-36.6012
1.7779 	-36.6357
1.78028 	-36.6701
1.78266 	-36.7043
1.78504 	-36.7383
1.78742 	-36.7722
1.7898 	-36.806
1.79218 	-36.8396
1.79456 	-36.873
1.79694 	-36.9063
1.79932 	-36.9395
1.8017 	-36.9725
1.80408 	-37.0054
1.80646 	-37.0382
1.80884 	-37.0708
1.81122 	-37.1033
1.8136 	-37.1356
1.81598 	-37.1678
1.81836 	-37.1999
1.82074 	-37.2318
1.82312 	-37.2636
1.8255 	-37.2952
1.82788 	-37.3267
1.83026 	-37.3581
1.83264 	-37.3894
1.83502 	-37.4205
1.8374 	-37.4515
1.83978 	-37.4823
1.84216 	-37.513
1.84454 	-37.5436
1.84692 	-37.5741
1.8493 	-37.6044
1.85168 	-37.6346
1.85406 	-37.6647
1.85644 	-37.6947
1.85882 	-37.7245
1.8612 	-37.7542
1.86358 	-37.7838
1.86596 	-37.8132
1.86834 	-37.8425
1.87072 	-37.8717
1.8731 	-37.9008
1.87548 	-37.9298
1.87786 	-37.9586
1.88024 	-37.9873
1.88262 	-38.0159
1.885 	-38.0444
1.88738 	-38.0727
1.88976 	-38.1009
1.89214 	-38.1291
1.89452 	-38.1571
1.8969 	-38.1849
1.89928 	-38.2127
1.90166 	-38.2403
1.90404 	-38.2679
1.90642 	-38.2953
1.9088 	-38.3226
1.91118 	-38.3498
1.91356 	-38.3768
1.91594 	-38.4038
1.91832 	-38.4306
1.9207 	-38.4574
1.92308 	-38.484
1.92546 	-38.5105
1.92784 	-38.5369
1.93022 	-38.5632
1.9326 	-38.5894
1.93498 	-38.6155
1.93736 	-38.6414
1.93974 	-38.6673
1.94212 	-38.693
1.9445 	-38.7186
1.94688 	-38.7442
1.94926 	-38.7696
1.95164 	-38.7949
1.95402 	-38.8201
1.9564 	-38.8452
1.95878 	-38.8702
1.96116 	-38.8951
1.96354 	-38.9199
1.96592 	-38.9446
1.9683 	-38.9692
1.97068 	-38.9937
1.97306 	-39.0181
1.97544 	-39.0424
1.97782 	-39.0666
1.9802 	-39.0906
1.98258 	-39.1146
1.98496 	-39.1385
1.98734 	-39.1623
1.98972 	-39.186
1.9921 	-39.2096
1.99448 	-39.233
1.99686 	-39.2564
1.99924 	-39.2797
2.00162 	-39.3029
2.004 	-39.326
2.00638 	-39.349
2.00876 	-39.3719
2.01114 	-39.3947
2.01352 	-39.4175
2.0159 	-39.4401
2.01828 	-39.4626
2.02066 	-39.485
2.02304 	-39.5074
2.02542 	-39.5296
2.0278 	-39.5518
2.03018 	-39.5738
2.03256 	-39.5958
2.03494 	-39.6177
2.03732 	-39.6395
2.0397 	-39.6612
2.04208 	-39.6828
2.04446 	-39.7043
2.04684 	-39.7257
2.04922 	-39.7471
2.0516 	-39.7683
2.05398 	-39.7895
2.05636 	-39.8105
2.05874 	-39.8315
2.06112 	-39.8524
2.0635 	-39.8732
2.06588 	-39.8939
2.06826 	-39.9146
2.07064 	-39.9351
2.07302 	-39.9556
2.0754 	-39.976
2.07778 	-39.9962
2.08016 	-40.0165
2.08254 	-40.0366
2.08492 	-40.0566
2.0873 	-40.0766
2.08968 	-40.0964
2.09206 	-40.1162
2.09444 	-40.1359
2.09682 	-40.1555
2.0992 	-40.1751
2.10158 	-40.1945
2.10396 	-40.2139
2.10634 	-40.2332
2.10872 	-40.2524
2.1111 	-40.2715
2.11348 	-40.2906
2.11586 	-40.3095
2.11824 	-40.3284
2.12062 	-40.3472
2.123 	-40.366
2.12538 	-40.3846
2.12776 	-40.4032
2.13014 	-40.4217
2.13252 	-40.4401
2.1349 	-40.4584
2.13728 	-40.4767
2.13966 	-40.4948
2.14204 	-40.5129
2.14442 	-40.531
2.1468 	-40.5489
2.14918 	-40.5668
2.15156 	-40.5846
2.15394 	-40.6023
2.15632 	-40.6199
2.1587 	-40.6375
2.16108 	-40.655
2.16346 	-40.6724
2.16584 	-40.6898
2.16822 	-40.707
2.1706 	-40.7242
2.17298 	-40.7413
2.17536 	-40.7584
2.17774 	-40.7754
2.18012 	-40.7923
2.1825 	-40.8091
2.18488 	-40.8258
2.18726 	-40.8425
2.18964 	-40.8591
2.19202 	-40.8757
2.1944 	-40.8921
2.19678 	-40.9085
2.19916 	-40.9249
2.20154 	-40.9411
2.20392 	-40.9573
2.2063 	-40.9734
2.20868 	-40.9894
2.21106 	-41.0054
2.21344 	-41.0213
2.21582 	-41.0371
2.2182 	-41.0529
2.22058 	-41.0686
2.22296 	-41.0842
2.22534 	-41.0998
2.22772 	-41.1152
2.2301 	-41.1307
2.23248 	-41.146
2.23486 	-41.1613
2.23724 	-41.1765
2.23962 	-41.1916
2.242 	-41.2067
2.24438 	-41.2217
2.24676 	-41.2367
2.24914 	-41.2516
2.25152 	-41.2664
2.2539 	-41.2811
2.25628 	-41.2958
2.25866 	-41.3104
2.26104 	-41.3249
2.26342 	-41.3394
2.2658 	-41.3538
2.26818 	-41.3682
2.27056 	-41.3825
2.27294 	-41.3967
2.27532 	-41.4108
2.2777 	-41.4249
2.28008 	-41.439
2.28246 	-41.4529
2.28484 	-41.4668
2.28722 	-41.4807
2.2896 	-41.4944
2.29198 	-41.5081
2.29436 	-41.5218
2.29674 	-41.5354
2.29912 	-41.5489
2.3015 	-41.5623
2.30388 	-41.5757
2.30626 	-41.5891
2.30864 	-41.6023
2.31102 	-41.6155
2.3134 	-41.6287
2.31578 	-41.6418
2.31816 	-41.6548
2.32054 	-41.6677
2.32292 	-41.6806
2.3253 	-41.6935
2.32768 	-41.7063
2.33006 	-41.719
2.33244 	-41.7316
2.33482 	-41.7442
2.3372 	-41.7568
2.33958 	-41.7692
2.34196 	-41.7816
2.34434 	-41.794
2.34672 	-41.8063
2.3491 	-41.8185
2.35148 	-41.8307
2.35386 	-41.8428
2.35624 	-41.8549
2.35862 	-41.8669
2.361 	-41.8788
2.36338 	-41.8907
2.36576 	-41.9025
2.36814 	-41.9143
2.37052 	-41.926
2.3729 	-41.9377
2.37528 	-41.9493
2.37766 	-41.9608
2.38004 	-41.9723
2.38242 	-41.9837
2.3848 	-41.995
2.38718 	-42.0063
2.38956 	-42.0176
2.39194 	-42.0288
2.39432 	-42.0399
2.3967 	-42.051
2.39908 	-42.062
2.40146 	-42.073
2.40384 	-42.0839
2.40622 	-42.0947
2.4086 	-42.1055
2.41098 	-42.1163
2.41336 	-42.127
2.41574 	-42.1376
2.41812 	-42.1482
2.4205 	-42.1587
2.42288 	-42.1691
2.42526 	-42.1795
2.42764 	-42.1899
2.43002 	-42.2002
2.4324 	-42.2104
2.43478 	-42.2206
2.43716 	-42.2307
2.43954 	-42.2408
2.44192 	-42.2508
2.4443 	-42.2608
2.44668 	-42.2707
2.44906 	-42.2806
2.45144 	-42.2904
2.45382 	-42.3001
2.4562 	-42.3098
2.45858 	-42.3195
2.46096 	-42.3291
2.46334 	-42.3386
2.46572 	-42.3481
2.4681 	-42.3575
2.47048 	-42.3669
2.47286 	-42.3762
2.47524 	-42.3855
2.47762 	-42.3947
2.48 	-42.4039
2.48238 	-42.413
2.48476 	-42.422
2.48714 	-42.431
2.48952 	-42.44
2.4919 	-42.4489
2.49428 	-42.4577
2.49666 	-42.4665
2.49904 	-42.4753
2.50142 	-42.484
2.5038 	-42.4926
2.50618 	-42.5012
2.50856 	-42.5097
2.51094 	-42.5182
2.51332 	-42.5267
2.5157 	-42.535
2.51808 	-42.5434
2.52046 	-42.5517
2.52284 	-42.5599
2.52522 	-42.5681
2.5276 	-42.5762
2.52998 	-42.5843
2.53236 	-42.5923
2.53474 	-42.6003
2.53712 	-42.6082
2.5395 	-42.616
2.54188 	-42.6239
2.54426 	-42.6316
2.54664 	-42.6394
2.54902 	-42.647
2.5514 	-42.6546
2.55378 	-42.6622
2.55616 	-42.6697
2.55854 	-42.6772
2.56092 	-42.6846
2.5633 	-42.692
2.56568 	-42.6993
2.56806 	-42.7066
2.57044 	-42.7138
2.57282 	-42.7209
2.5752 	-42.7281
2.57758 	-42.7351
2.57996 	-42.7422
2.58234 	-42.7491
2.58472 	-42.756
2.5871 	-42.7629
2.58948 	-42.7697
2.59186 	-42.7765
2.59424 	-42.7832
2.59662 	-42.7899
2.599 	-42.7965
2.60138 	-42.8031
2.60376 	-42.8096
2.60614 	-42.8161
2.60852 	-42.8225
2.6109 	-42.8289
2.61328 	-42.8352
2.61566 	-42.8415
2.61804 	-42.8477
2.62042 	-42.8539
2.6228 	-42.8601
2.62518 	-42.8662
2.62756 	-42.8722
2.62994 	-42.8782
2.63232 	-42.8841
2.6347 	-42.89
2.63708 	-42.8959
2.63946 	-42.9017
2.64184 	-42.9074
2.64422 	-42.9131
2.6466 	-42.9188
2.64898 	-42.9244
2.65136 	-42.9299
2.65374 	-42.9354
2.65612 	-42.9409
2.6585 	-42.9463
2.66088 	-42.9516
2.66326 	-42.957
2.66564 	-42.9622
2.66802 	-42.9675
2.6704 	-42.9726
2.67278 	-42.9777
2.67516 	-42.9828
2.67754 	-42.9878
2.67992 	-42.9928
2.6823 	-42.9978
2.68468 	-43.0026
2.68706 	-43.0075
2.68944 	-43.0123
2.69182 	-43.017
2.6942 	-43.0217
2.69658 	-43.0264
2.69896 	-43.031
2.70134 	-43.0355
2.70372 	-43.04
2.7061 	-43.0445
2.70848 	-43.0489
2.71086 	-43.0533
2.71324 	-43.0576
2.71562 	-43.0618
2.718 	-43.0661
2.72038 	-43.0702
2.72276 	-43.0744
2.72514 	-43.0784
2.72752 	-43.0825
2.7299 	-43.0865
2.73228 	-43.0904
2.73466 	-43.0943
2.73704 	-43.0981
2.73942 	-43.1019
2.7418 	-43.1057
2.74418 	-43.1094
2.74656 	-43.113
2.74894 	-43.1167
2.75132 	-43.1202
2.7537 	-43.1237
2.75608 	-43.1272
2.75846 	-43.1306
2.76084 	-43.134
2.76322 	-43.1373
2.7656 	-43.1406
2.76798 	-43.1438
2.77036 	-43.147
2.77274 	-43.1502
2.77512 	-43.1533
2.7775 	-43.1563
2.77988 	-43.1593
2.78226 	-43.1623
2.78464 	-43.1652
2.78702 	-43.168
2.7894 	-43.1708
2.79178 	-43.1736
2.79416 	-43.1763
2.79654 	-43.179
2.79892 	-43.1816
2.8013 	-43.1842
2.80368 	-43.1867
