# mass number (A) = 40
# number of protons (Z) = 18
#units k = 1/fm , units n_1(k) = fm^3
# k (1/fm)	n	p	tot
0.0	4.11845490492
0.01	4.11690583834
0.02	4.11226735137
0.03	4.10456551153
0.04	4.0938435294
0.05	4.08016140798
0.06	4.0635954564
0.07	4.04423767256
0.08	4.02219500037
0.09	3.99758846865
0.1	3.97055221946
0.11	3.94123243515
0.12	3.90978617377
0.13	3.8763801237
0.14	3.84118928877
0.15	3.80439561602
0.16	3.76618657828
0.17	3.72675372449
0.18	3.68629121059
0.19	3.64499432405
0.2	3.60305801489
0.21	3.56067544597
0.22	3.51803657504
0.23	3.47532678034
0.24	3.43272554144
0.25	3.39040518593
0.26	3.34852971199
0.27	3.30725369618
0.28	3.26672129453
0.29	3.22706534435
0.3	3.18840657297
0.31	3.15085291849
0.32	3.1144989667
0.33	3.07942550692
0.34	3.0456992087
0.35	3.01337241971
0.36	2.98248308459
0.37	2.95305478295
0.38	2.92509688382
0.39	2.89860481305
0.4	2.87356042873
0.41	2.84993249935
0.42	2.82767727817
0.43	2.8067391668
0.44	2.78705146022
0.45	2.76853716496
0.46	2.75110988174
0.47	2.73467474337
0.48	2.7191293986
0.49	2.70436503232
0.5	2.69026741258
0.51	2.67671795471
0.52	2.66359479318
0.53	2.65077385181
0.54	2.63812990341
0.55	2.62553761026
0.56	2.61287253707
0.57	2.6000121289
0.58	2.58683664683
0.59	2.57323005482
0.6	2.55908085188
0.61	2.54428284438
0.62	2.52873585402
0.63	2.51234635758
0.64	2.49502805553
0.65	2.4767023671
0.66	2.45729885036
0.67	2.43675554629
0.68	2.41501924685
0.69	2.39204568741
0.7	2.36779966488
0.71	2.34225508307
0.72	2.31539492784
0.73	2.28721117469
0.74	2.25770463225
0.75	2.22688472522
0.76	2.19476922112
0.77	2.16138390494
0.78	2.12676220665
0.79	2.09094478624
0.8	2.05397908136
0.81	2.01591882269
0.82	1.97682352227
0.83	1.9367579397
0.84	1.89579153161
0.85	1.85399788914
0.86	1.81145416855
0.87	1.76824051934
0.88	1.72443951466
0.89	1.68013558808
0.9	1.63541448074
0.91	1.59036270256
0.92	1.54506701095
0.93	1.49961391006
0.94	1.4540891732
0.95	1.4085773911
0.96	1.36316154778
0.97	1.31792262594
0.98	1.27293924324
0.99	1.22828732049
1.0	1.1840397825
1.01	1.14026629213
1.02	1.09703301757
1.03	1.05440243275
1.04	1.01243315059
1.05	0.971179788407
1.06	0.930692864544
1.07	0.891018725395
1.08	0.852199501426
1.09	0.81427309092
1.1	0.777273169908
1.11	0.741229226697
1.12	0.706166619274
1.13	0.672106653816
1.14	0.639066682502
1.15	0.607060218745
1.16	0.576097068004
1.17	0.546183472304
1.18	0.517322266609
1.19	0.489513045268
1.2	0.462752336739
1.21	0.437033784908
1.22	0.412348335361
1.23	0.388684425046
1.24	0.366028173856
1.25	0.344363576742
1.26	0.323672695075
1.27	0.303935846066
1.28	0.285131789147
1.29	0.267237908341
1.3	0.250230389725
1.31	0.23408439322
1.32	0.218774218014
1.33	0.204273461047
1.34	0.190555168068
1.35	0.177591976868
1.36	0.165356252386
1.37	0.153820213466
1.38	0.142956051105
1.39	0.132736038142
1.4	0.123132630355
1.41	0.114118559049
1.42	0.105666915217
1.43	0.0977512254677
1.44	0.0903455198934
1.45	0.083424392153
1.46	0.0769630520288
1.47	0.0709373707768
1.48	0.0653239195975
1.49	0.0601000015795
1.5	0.0552436774814
1.51	0.0507337857278
1.52	0.0465499570005
1.53	0.0426726238123
1.54	0.0390830254457
1.55	0.0357632086395
1.56	0.032696024399
1.57	0.0298651212949
1.58	0.0272549356107
1.59	0.0248506786811
1.6	0.0226383217528
1.61	0.0206045786852
1.62	0.0187368867904
1.63	0.0170233860965
1.64	0.0154528973023
1.65	0.0140148986713
1.66	0.0126995020986
1.67	0.0114974285638
1.68	0.0103999831687
1.69	0.00939902993838
1.7	0.00848696654966
1.71	0.00765669913476
1.72	0.00690161729103
1.73	0.00621556941398
1.74	0.00559283845602
1.75	0.00502811820007
1.76	0.00451649012433
1.77	0.00405340092271
1.78	0.00363464073442
1.79	0.0032563221256
1.8	0.00291485985699
1.81	0.00260695146234
1.82	0.00232955865474
1.83	0.002079889571
1.84	0.00185538185732
1.85	0.00165368659438
1.86	0.00147265305447
1.87	0.00131031427909
1.88	0.00116487346154
1.89	0.00103469111577
1.9	0.000918273009991
1.91	0.000814258841272
1.92	0.000721411625477
1.93	0.000638607775469
1.94	0.000564827839435
1.95	0.000499147870427
1.96	0.000440731397743
1.97	0.000388821970601
1.98	0.000342736244604
1.99	0.000301857581696
2.0	0.000265630134788
2.01	0.00023355338876
2.02	0.000205177130248
2.03	0.000180096819468
2.04	0.000157949338154
2.05	0.000138409088725
2.06	0.000121184420729
2.07	0.000106014361728
2.08	9.26656308142e-05
2.09	8.09299140621e-05
2.1	7.06213822969e-05
2.11	6.1574432644e-05
2.12	5.36416363981e-05
2.13	4.66918767946e-05
2.14	4.06086612906e-05
2.15	3.52885939552e-05
2.16	3.0639994528e-05
2.17	2.65816516273e-05
2.18	2.30416984708e-05
2.19	1.99566003174e-05
2.2	1.72702436387e-05
2.21	1.4933117789e-05
2.22	1.29015806598e-05
2.23	1.1137200484e-05
2.24	9.60616658725e-06
2.25	8.27876248229e-06
2.26	7.12889525615e-06
2.27	6.13367572205e-06
2.28	5.27304428797e-06
2.29	4.52943794334e-06
2.3	3.88749417964e-06
2.31	3.33378804418e-06
2.32	2.8565988797e-06
2.33	2.44570362782e-06
2.34	2.09219387311e-06
2.35	1.78831407854e-06
2.36	1.52731871355e-06
2.37	1.3033462051e-06
2.38	1.11130785065e-06
2.39	9.46790022227e-07
2.4	8.05968163063e-07
2.41	6.85531235317e-07
2.42	5.82615418869e-07
2.43	4.94745989703e-07
2.44	4.19786422096e-07
2.45	3.55893863238e-07
2.46	3.01480222875e-07
2.47	2.55178205016e-07
2.48	2.1581168452e-07
2.49	1.82369899281e-07
2.5	1.5398498951e-07
2.51	1.29912469879e-07
2.52	1.09514268779e-07
2.53	9.22440120641e-08
2.54	7.76342671187e-08
2.55	6.5285497177e-08
2.56	5.48565061531e-08
2.57	4.60561810689e-08
2.58	3.86363629426e-08
2.59	3.23856980088e-08
2.6	2.71243396857e-08
2.61	2.26993880653e-08
2.62	1.89809680985e-08
2.63	1.58588603204e-08
2.64	1.32396090838e-08
2.65	1.10440430358e-08
2.66	9.20515112447e-09
2.67	7.66626491448e-09
2.68	6.37950453234e-09
2.69	5.30445128174e-09
2.7	4.40701495174e-09
2.71	3.65846818402e-09
2.72	3.03462404374e-09
2.73	2.51513622178e-09
2.74	2.08290414722e-09
2.75	1.72356776012e-09
2.76	1.42507883576e-09
2.77	1.17733760338e-09
2.78	9.71885003094e-10
2.79	8.01642305908e-10
2.8	6.60691013459e-10
2.81	5.44086979614e-10
2.82	4.47703579093e-10
2.83	3.68099506765e-10
2.84	3.02407442535e-10
2.85	2.48240375227e-10
2.86	2.03612857252e-10
2.87	1.6687487122e-10
2.88	1.36656339597e-10
2.89	1.1182060729e-10
2.9	9.14254819075e-11
2.91	7.46906336145e-11
2.92	6.09703413608e-11
2.93	4.97307294215e-11
2.94	4.05307717104e-11
2.95	3.3006454613e-11
2.96	2.68575851109e-11
2.97	2.18368122889e-11
2.98	1.77404991028e-11
2.99	1.4401139414e-11
3.0	1.16810643681e-11
3.01	9.46722358216e-12
3.02	7.66686146821e-12
3.03	6.20393836607e-12
3.04	5.01617083183e-12
3.05	4.05258615119e-12
3.06	3.27150353695e-12
3.07	2.6388690472e-12
3.08	2.12688346867e-12
3.09	1.71287262265e-12
3.1	1.37835808761e-12
3.11	1.10829345935e-12
3.12	8.90437215854e-13
3.13	7.14838207731e-13
3.14	5.73413920408e-13
3.15	4.59605084741e-13
3.16	3.68093063199e-13
3.17	2.94568805125e-13
3.18	2.35544126861e-13
3.19	1.88197698357e-13
3.2	1.50249463575e-13
3.21	1.19858334773e-13
3.22	9.55389200534e-14
3.23	7.60938022699e-14
3.24	6.05585130184e-14
3.25	4.81568607679e-14
3.26	3.82646963375e-14
3.27	3.03805476375e-14
3.28	2.41018420559e-14
3.29	1.91056699431e-14
3.3	1.51332353974e-14
3.31	1.19772984232e-14
3.32	9.47204173752e-15
3.33	7.4849011322e-15
3.34	5.90998457963e-15
3.35	4.66277568491e-15
3.36	3.67587449389e-15
3.37	2.8955754285e-15
3.38	2.27912017578e-15
3.39	1.79249429659e-15
3.4	1.40866145319e-15
3.41	1.10614955071e-15
3.42	8.67919625224e-16
3.43	6.80461707333e-16
3.44	5.33072731992e-16
3.45	4.17280331788e-16
3.46	3.2638343274e-16
3.47	2.55086287547e-16
3.48	1.99207190192e-16
3.49	1.55446829056e-16
3.5	1.21204224469e-16
3.51	9.44306000908e-17
3.52	7.35134686428e-17
3.53	5.71847625927e-17
3.54	4.44480836165e-17
3.55	3.4521140788e-17
3.56	2.67902449173e-17
3.57	2.07743642947e-17
3.58	1.60967568114e-17
3.59	1.24626003779e-17
3.6	9.64136818239e-18
3.61	7.45295404947e-18
3.62	5.75675916202e-18
3.63	4.44311529916e-18
3.64	3.4265500093e-18
3.65	2.64050258692e-18
3.66	2.03318180189e-18
3.67	1.56432139844e-18
3.68	1.20264091608e-18
3.69	9.23860166374e-19
3.7	7.09147942814e-19
3.71	5.43911010616e-19
3.72	4.16849525072e-19
3.73	3.19220878072e-19
3.74	2.44266460543e-19
3.75	1.86765658671e-19
3.76	1.42689132785e-19
3.77	1.08929502596e-19
3.78	8.30923317943e-20
3.79	6.33340459689e-20
3.8	4.82363497331e-20
3.81	3.67090046586e-20
3.82	2.7914625712e-20
3.83	2.12105578023e-20
3.84	1.61039904964e-20
3.85	1.22173245189e-20
3.86	9.26147067466e-21
3.87	7.01528140606e-21
3.88	5.30971956973e-21
3.89	4.01568345995e-21
3.9	3.03465140295e-21
3.91	2.29149888498e-21
3.92	1.72898825748e-21
3.93	1.3035450384e-21
3.94	9.82023073441e-22
3.95	7.39229086497e-22
3.96	5.56029911053e-22
3.97	4.17906440929e-22
3.98	3.13849777931e-22
3.99	2.35519291384e-22
4.0	1.76600973627e-22
4.01	1.32318843433e-22
4.02	9.90631973416e-23
4.03	7.41079970028e-23
4.04	5.53961962888e-23
4.05	4.13768093165e-23
4.06	3.08813500811e-23
4.07	2.30302065726e-23
4.08	1.71617553863e-23
4.09	1.27787374094e-23
4.1	9.50772459733e-24
4.11	7.06850703098e-24
4.12	5.25099122874e-24
4.13	3.89778098606e-24
4.14	2.89105369263e-24
4.15	2.1426809589e-24
4.16	1.58679759638e-24
4.17	1.17421674995e-24
4.18	8.68235950228e-25
4.19	6.41490243109e-25
4.2	4.73592903176e-25
4.21	3.49368059321e-25
4.22	2.57527808026e-25
4.23	1.89682833398e-25
4.24	1.3960305719e-25
4.25	1.02665582115e-25
4.26	7.54428181525e-26
4.27	5.53954450822e-26
4.28	4.06437127006e-26
4.29	2.979722994e-26
4.3	2.18283874488e-26
4.31	1.59783045984e-26
4.32	1.16870003582e-26
4.33	8.54159108116e-27
4.34	6.23789256524e-27
4.35	4.55198097657e-27
4.36	3.31914677018e-27
4.37	2.41833234057e-27
4.38	1.76063388401e-27
4.39	1.28081294937e-27
4.4	9.31034946162e-28
4.41	6.76254098273e-28
4.42	4.908146631e-28
4.43	3.55949899428e-28
4.44	2.5794314042e-28
4.45	1.86776782411e-28
4.46	1.35140533631e-28
4.47	9.77039760829e-29
4.48	7.05834283985e-29
4.49	5.0951526316e-29
4.5	3.67515465629e-29
4.51	2.64885415628e-29
4.52	1.90767555502e-29
4.53	1.37282461071e-29
4.54	9.87164900228e-30
4.55	7.09297607238e-30
4.56	5.09250493227e-30
4.57	3.653411812e-30
4.58	2.61896707326e-30
4.59	1.87596927043e-30
4.6	1.34272076772e-30
4.61	9.60306854251e-31
4.62	6.862758551e-31
4.63	4.90062883035e-31
4.64	3.49678824388e-31
4.65	2.49316670926e-31
4.66	1.77622426756e-31
4.67	1.26447079955e-31
4.68	8.99465201525e-32
4.69	6.39329161448e-32
4.7	4.54076764759e-32
4.71	3.22254278636e-32
4.72	2.28524508021e-32
4.73	1.61931590111e-32
4.74	1.14655558895e-32
4.75	8.11191549263e-33
4.76	5.73477675143e-33
4.77	4.05111376867e-33
4.78	2.85954686265e-33
4.79	2.01690238807e-33
4.8	1.42146920164e-33
4.81	1.00104815516e-33
4.82	7.04429368717e-34
4.83	4.95318941428e-34
4.84	3.48014583865e-34
4.85	2.44328993086e-34
4.86	1.71402695743e-34
4.87	1.20150449507e-34
4.88	8.41585585564e-35
4.89	5.89028543752e-35
4.9	4.11945330381e-35
4.91	2.87877714342e-35
4.92	2.01021149686e-35
4.93	1.4026222725e-35
4.94	9.77923781479e-36
4.95	6.81294070374e-36
4.96	4.74274267205e-36
4.97	3.29905754953e-36
4.98	2.29306108815e-36
4.99	1.59260027713e-36
5.0	1.10525733085e-36
#normalisation = 1.0
#eerste moment n(k)k**2 = 0.850086076057
0.810513659617	0
#3e moment n(k)k**2 = 0.840459038149
#4e moment n(k)k**2 = 0.932169586673
0.296424227943	0
#kurtosis n(k)k**2 = -0.156377428893
#skewness n(k)k**2 = 0.0792093178569
