# mass number (A) = 56
# number of protons (Z) = 26
#units k = 1/fm , units n_1(k) = fm^3
# k (1/fm)	n	p	tot
0.0	3.3759906227
0.01	3.37506267248
0.02	3.37228364138
0.03	3.36766795631
0.04	3.36123955634
0.05	3.35303173457
0.06	3.34308691817
0.07	3.33145638764
0.08	3.3181999371
0.09	3.30338547746
0.1	3.28708858502
0.11	3.26939199789
0.12	3.25038506364
0.13	3.23016314119
0.14	3.20882696093
0.15	3.18648194688
0.16	3.16323750528
0.17	3.13920628422
0.18	3.114503409
0.19	3.08924569846
0.2	3.06355086745
0.21	3.03753672091
0.22	3.01132034522
0.23	2.98501730233
0.24	2.95874083275
0.25	2.93260107284
0.26	2.90670429251
0.27	2.88115215876
0.28	2.85604103088
0.29	2.83146129261
0.3	2.80749672659
0.31	2.78422393606
0.32	2.76171181836
0.33	2.74002109473
0.34	2.71920390027
0.35	2.69930343737
0.36	2.68035369588
0.37	2.66237924222
0.38	2.6453950796
0.39	2.62940658043
0.4	2.61440949187
0.41	2.60039001461
0.42	2.58732495427
0.43	2.57518194441
0.44	2.5639197394
0.45	2.55348857472
0.46	2.54383059178
0.47	2.53488032377
0.48	2.52656523841
0.49	2.51880633301
0.5	2.51151877696
0.51	2.50461259596
0.52	2.4979933924
0.53	2.49156309566
0.54	2.48522073601
0.55	2.47886323553
0.56	2.47238620941
0.57	2.46568477097
0.58	2.45865433366
0.59	2.45119140334
0.6	2.44319435462
0.61	2.43456418472
0.62	2.4252052391
0.63	2.41502590302
0.64	2.40393925391
0.65	2.39186366962
0.66	2.37872338811
0.67	2.36444901488
0.68	2.34897797463
0.69	2.33225490448
0.7	2.31423198652
0.71	2.29486921809
0.72	2.27413461874
0.73	2.25200437361
0.74	2.22846291311
0.75	2.20350292996
0.76	2.17712533464
0.77	2.14933915113
0.78	2.12016135528
0.79	2.08961665852
0.8	2.05773724001
0.81	2.02456243096
0.82	1.99013835471
0.83	1.954517527
0.84	1.91775842055
0.85	1.87992499873
0.86	1.84108622276
0.87	1.80131553739
0.88	1.76069033973
0.89	1.71929143609
0.9	1.67720249134
0.91	1.63450947565
0.92	1.59130011279
0.93	1.54766333445
0.94	1.50368874441
0.95	1.45946609655
0.96	1.41508479007
0.97	1.37063338515
0.98	1.326199142
0.99	1.28186758577
1.0	1.23772209971
1.01	1.19384354819
1.02	1.15030993144
1.03	1.10719607296
1.04	1.06457334054
1.05	1.02250940147
1.06	0.981068012025
1.07	0.940308841293
1.08	0.900287328797
1.09	0.861054575418
1.1	0.822657266634
1.11	0.785137627017
1.12	0.748533404638
1.13	0.712877883921
1.14	0.67819992529
1.15	0.644524029842
1.16	0.611870427179
1.17	0.580255184439
1.18	0.54969033452
1.19	0.520184021456
1.2	0.491740660878
1.21	0.464361113517
1.22	0.438042869711
1.23	0.412780242944
1.24	0.388564570464
1.25	0.365384419151
1.26	0.343225794827
1.27	0.322072353353
1.28	0.301905611905
1.29	0.282705158974
1.3	0.264448861725
1.31	0.247113069469
1.32	0.230672812136
1.33	0.215101992736
1.34	0.200373572954
1.35	0.186459751088
1.36	0.173332131716
1.37	0.160961886559
1.38	0.149319906106
1.39	0.138376941714
1.4	0.128103737946
1.41	0.118471155039
1.42	0.10945028146
1.43	0.101012536599
1.44	0.0931297637041
1.45	0.0857743132605
1.46	0.0789191170262
1.47	0.0725377530357
1.48	0.066604501895
1.49	0.0610943947416
1.5	0.0559832532716
1.51	0.051247722259
1.52	0.0468652950133
1.53	0.0428143322327
1.54	0.0390740747178
1.55	0.0356246504173
1.56	0.032447076271
1.57	0.0295232553153
1.58	0.0268359695053
1.59	0.0243688686966
1.6	0.0221064562161
1.61	0.0200340714356
1.62	0.0181378697425
1.63	0.016404800282
1.64	0.0148225818272
1.65	0.013379677108
1.66	0.0120652659099
1.67	0.0108692172309
1.68	0.00978206076147
1.69	0.00879495793038
1.7	0.00789967273786
1.71	0.00708854257451
1.72	0.00635444920492
1.73	0.00569079007391
1.74	0.00509145007454
1.75	0.00455077389848
1.76	0.00406353907233
1.77	0.00362492976709
1.78	0.00323051145299
1.79	0.00287620645785
1.8	0.00255827047448
1.81	0.00227327005036
1.82	0.00201806108292
1.83	0.00178976833322
1.84	0.00158576596292
1.85	0.00140365909143
1.86	0.00124126636341
1.87	0.00109660351104
1.88	0.000967867890401
1.89	0.00085342396705
1.9	0.000751789722332
1.91	0.00066162394906
1.92	0.000581714402938
1.93	0.000510966774338
1.94	0.000448394443815
1.95	0.000393108983915
1.96	0.00034431136945
1.97	0.000301283858335
1.98	0.000263382505337
1.99	0.000230030271591
2.0	0.000200710693447
2.01	0.000174962075177
2.02	0.000152372171088
2.03	0.000132573323831
2.04	0.000115238026981
2.05	0.000100074881324
2.06	8.68249157239e-05
2.07	7.52582449021e-05
2.08	6.51710379289e-05
2.09	5.63827726973e-05
2.1	4.87337531205e-05
2.11	4.20828672283e-05
2.12	3.63055657426e-05
2.13	3.12920420822e-05
2.14	2.69455960655e-05
2.15	2.31811648503e-05
2.16	1.99240058644e-05
2.17	1.710851764e-05
2.18	1.4677185561e-05
2.19	1.25796405767e-05
2.2	1.07718199082e-05
2.21	9.21521970036e-06
2.22	7.87623042749e-06
2.23	6.72554666951e-06
2.24	5.73764361957e-06
2.25	4.8903133814e-06
2.26	4.16425475605e-06
2.27	3.54271081174e-06
2.28	3.01114907746e-06
2.29	2.55697970337e-06
2.3	2.1693073918e-06
2.31	1.83871332427e-06
2.32	1.55706369462e-06
2.33	1.31734180893e-06
2.34	1.11350103159e-06
2.35	9.40336145761e-07
2.36	7.9337095852e-07
2.37	6.68760217331e-07
2.38	5.63204117975e-07
2.39	4.73873876188e-07
2.4	3.98347007962e-07
2.41	3.34551118392e-07
2.42	2.80715137713e-07
2.43	2.35327067279e-07
2.44	1.97097408926e-07
2.45	1.64927549907e-07
2.46	1.37882463358e-07
2.47	1.15167162238e-07
2.48	9.61064138746e-08
2.49	8.01272834663e-08
2.5	6.67441290362e-08
2.51	5.55457181347e-08
2.52	4.61841787017e-08
2.53	3.83655335776e-08
2.54	3.18416007298e-08
2.55	2.64030698503e-08
2.56	2.18735910303e-08
2.57	1.81047331378e-08
2.58	1.49716886725e-08
2.59	1.23696185885e-08
2.6	1.0210545129e-08
2.61	8.4207133896e-09
2.62	6.93835333511e-09
2.63	5.71178354534e-09
2.64	4.69780624461e-09
2.65	3.86035033328e-09
2.66	3.16932533122e-09
2.67	2.59965448759e-09
2.68	2.13045991792e-09
2.69	1.74437659587e-09
2.7	1.42697543692e-09
2.71	1.1662786394e-09
2.72	9.52352959604e-10
2.73	7.76968748552e-10
2.74	6.3331441803e-10
2.75	5.15757575575e-10
2.76	4.19645409585e-10
2.77	3.41138048987e-10
2.78	2.77069595169e-10
2.79	2.24832351242e-10
2.8	1.82280476318e-10
2.81	1.47649888396e-10
2.82	1.19491744213e-10
2.83	9.6617251546e-11
2.84	7.80519303699e-11
2.85	6.29977439582e-11
2.86	5.08017778694e-11
2.87	4.09303610708e-11
2.88	3.29477053897e-11
2.89	2.64982923388e-11
2.9	2.12923646354e-11
2.91	1.70939872501e-11
2.92	1.3711232839e-11
2.93	1.09881216936e-11
2.94	8.79800922631e-12
2.95	7.03816647761e-12
2.96	5.62534285817e-12
2.97	4.49213674564e-12
2.98	3.58402982533e-12
2.99	2.85696620928e-12
3.0	2.27537823039e-12
3.01	1.81057809814e-12
3.02	1.43944891587e-12
3.03	1.14338039639e-12
3.04	9.07404389551e-13
3.05	7.1949340285e-13
3.06	5.69991945494e-13
3.07	4.51156000543e-13
3.08	3.56780432137e-13
3.09	2.81897833442e-13
3.1	2.22535356255e-13
3.11	1.75518551352e-13
3.12	1.38313286167e-13
3.13	1.08898472966e-13
3.14	8.56637025455e-14
3.15	6.73269899929e-14
3.16	5.2868745422e-14
3.17	4.14788207659e-14
3.18	3.25140843592e-14
3.19	2.54644632071e-14
3.2	1.99257892014e-14
3.21	1.55781070116e-14
3.22	1.2168361839e-14
3.23	9.49659602674e-15
3.24	7.40495395356e-15
3.25	5.76893230228e-15
3.26	4.49042385513e-15
3.27	3.49219248908e-15
3.28	2.71348911932e-15
3.29	2.10657631098e-15
3.3	1.63397585969e-15
3.31	1.26629102896e-15
3.32	9.80485111898e-16
3.33	7.58521997812e-16
3.34	5.86293640146e-16
3.35	4.52774682138e-16
3.36	3.49356762865e-16
3.37	2.69324811411e-16
3.38	2.07445435029e-16
3.39	1.59643715412e-16
3.4	1.2274966468e-16
3.41	9.42995156096e-17
3.42	7.2380134254e-17
3.43	5.55073119199e-17
3.44	4.25306490571e-17
3.45	3.25592910707e-17
3.46	2.49039993779e-17
3.47	1.90320071021e-17
3.48	1.45318709645e-17
3.49	1.10861316407e-17
3.5	8.45006781473e-18
3.51	6.43520119299e-18
3.52	4.89650207667e-18
3.53	3.72247458046e-18
3.54	2.8274805589e-18
3.55	2.14580230364e-18
3.56	1.62705443523e-18
3.57	1.2326417051e-18
3.58	9.33026829448e-19
3.59	7.05625078978e-19
3.6	5.33183356943e-19
3.61	4.02533437335e-19
3.62	3.03633886062e-19
3.63	2.28834505123e-19
3.64	1.72312140473e-19
3.65	1.29638331818e-19
3.66	9.74483020108e-20
3.67	7.31877673509e-20
3.68	5.49194521432e-20
3.69	4.11753653744e-20
3.7	3.08441202639e-20
3.71	2.30850631446e-20
3.72	1.72628934501e-20
3.73	1.28979309629e-20
3.74	9.62832033529e-21
3.75	7.18133403117e-21
3.76	5.35160348315e-21
3.77	3.98462099028e-21
3.78	2.96424767093e-21
3.79	2.203263405e-21
3.8	1.63622455523e-21
3.81	1.2140708373e-21
3.82	9.00056701406e-22
3.83	6.66684745206e-22
3.84	4.93396489416e-22
3.85	3.64835058164e-22
3.86	2.69539319888e-22
3.87	1.98963232556e-22
3.88	1.46740078107e-22
3.89	1.08130935828e-22
3.9	7.96116372646e-23
3.91	5.85637134694e-23
3.92	4.30433629619e-23
3.93	3.16089011475e-23
3.94	2.31920048944e-23
3.95	1.7001723919e-23
3.96	1.24529851987e-23
3.97	9.11338897139e-24
3.98	6.66365248722e-24
3.99	4.86822729657e-24
4.0	3.55349330868e-24
4.01	2.59159049745e-24
4.02	1.88844156708e-24
4.03	1.37488727418e-24
4.04	1.00013142675e-24
4.05	7.26898159352e-25
4.06	5.2785744174e-25
4.07	3.82989073213e-25
4.08	2.77640517089e-25
4.09	2.01097236066e-25
4.1	1.45531238111e-25
4.11	1.05228476157e-25
4.12	7.60216587939e-26
4.13	5.48742343153e-26
4.14	3.95755303991e-26
4.15	2.85175506085e-26
4.16	2.05317028745e-26
4.17	1.47694750571e-26
4.18	1.0615306879e-26
4.19	7.62302805713e-27
4.2	5.46953011783e-27
4.21	3.92102957374e-27
4.22	2.80852233327e-27
4.23	2.00994129581e-27
4.24	1.43719817015e-27
4.25	1.02678092432e-27
4.26	7.32937333626e-28
4.27	5.22737762056e-28
4.28	3.72502287647e-28
4.29	2.65217462181e-28
4.3	1.88670259805e-28
4.31	1.34101304289e-28
4.32	9.5233739567e-29
4.33	6.7573593678e-29
4.34	4.79061858065e-29
4.35	3.3933966957e-29
4.36	2.40163049007e-29
4.37	1.69826836776e-29
4.38	1.19987246166e-29
4.39	8.47017810209e-30
4.4	5.97418609276e-30
4.41	4.21011302501e-30
4.42	2.96440559459e-30
4.43	2.08550103505e-30
4.44	1.46592640311e-30
4.45	1.02953935231e-30
4.46	7.22441719212e-31
4.47	5.0651442678e-31
4.48	3.54821569059e-31
4.49	2.48346159547e-31
4.5	1.73673750124e-31
4.51	1.21350135645e-31
4.52	8.47180114589e-32
4.53	5.90936337071e-32
4.54	4.11846278498e-32
4.55	2.86786798208e-32
4.56	1.99532100943e-32
4.57	1.38706258527e-32
4.58	9.6340534505e-33
4.59	6.68577579704e-33
4.6	4.63579666876e-33
4.61	3.21163966011e-33
4.62	2.22310081564e-33
4.63	1.5375224484e-33
4.64	1.06246292285e-33
4.65	7.33560875766e-34
4.66	5.06044425225e-34
4.67	3.48795830636e-34
4.68	2.4020615316e-34
4.69	1.65282632773e-34
4.7	1.13631990356e-34
4.71	7.80556509855e-35
4.72	5.35720761703e-35
4.73	3.67369453933e-35
4.74	2.51708621545e-35
4.75	1.72315232009e-35
4.76	1.17863632485e-35
4.77	8.05501946227e-36
4.78	5.50027028416e-36
4.79	3.75259916854e-36
4.8	2.55806207194e-36
4.81	1.742291336e-36
4.82	1.18566313605e-36
4.83	8.06181342237e-37
4.84	5.47690360455e-37
4.85	3.7176493403e-37
4.86	2.52134784013e-37
4.87	1.70855184675e-37
4.88	1.15679035698e-37
4.89	7.82550365731e-38
4.9	5.28933557604e-38
4.91	3.57207993371e-38
4.92	2.4103076684e-38
4.93	1.62500650446e-38
4.94	1.0946343521e-38
4.95	7.36740308402e-39
4.96	4.95440173636e-39
4.97	3.32889024343e-39
4.98	2.2348029849e-39
4.99	1.49903080698e-39
5.0	1.00464693178e-39
#normalisation = 1.0
#eerste moment n(k)k**2 = 0.863808650887
0.831209310652	0
#3e moment n(k)k**2 = 0.865895194474
#4e moment n(k)k**2 = 0.961394961579
0.29162291629	0
#kurtosis n(k)k**2 = -0.158194721587
#skewness n(k)k**2 = 0.0389522161209
