# Mass = 0.0441503 Mev*(hbarc)^2/2 
# R = 2.88468 fm 
# a = 0.662 fm 
# V0 = 60.3743 MeV 
# RSO = 2.65116 fm 
# aSO = 0.662 fm 
# VSO = 32.9592 MeV fm^2
# n = 0 
# l = 1 
# two_j = 3 
# two_t = 1 
# Energy = -18.8508 MeV
# r          u            Phi          u/r          
0.1          0.00373051   0.00713694   0.0373051    
0.10238      0.00391018   0.00730505   0.0381928    
0.10476      0.00409402   0.00747308   0.03908      
0.10714      0.00428205   0.00764102   0.0399668    
0.10952      0.00447425   0.00780887   0.0408532    
0.1119       0.00467063   0.00797663   0.0417393    
0.11428      0.00487118   0.0081443    0.0426249    
0.11666      0.0050759    0.00831187   0.0435102    
0.11904      0.00528479   0.00847934   0.044395     
0.12142      0.00549784   0.00864671   0.0452795    
0.1238       0.00571506   0.00881397   0.0461636    
0.12618      0.00593644   0.00898113   0.0470474    
0.12856      0.00616197   0.00914817   0.0479307    
0.13094      0.00639166   0.0093151    0.0488137    
0.13332      0.0066255    0.00948192   0.0496962    
0.1357       0.00686349   0.00964862   0.0505784    
0.13808      0.00710563   0.0098152    0.0514602    
0.14046      0.00735191   0.00998165   0.0523417    
0.14284      0.00760233   0.010148     0.0532227    
0.14522      0.00785689   0.0103142    0.0541033    
0.1476       0.00811558   0.0104803    0.0549836    
0.14998      0.0083784    0.0106462    0.0558634    
0.15236      0.00864535   0.010812     0.0567429    
0.15474      0.00891642   0.0109777    0.0576219    
0.15712      0.00919161   0.0111432    0.0585006    
0.1595       0.00947092   0.0113086    0.0593788    
0.16188      0.00975434   0.0114738    0.0602566    
0.16426      0.0100419    0.0116389    0.061134     
0.16664      0.0103335    0.0118039    0.062011     
0.16902      0.0106293    0.0119687    0.0628875    
0.1714       0.0109291    0.0121334    0.0637637    
0.17378      0.011233     0.0122979    0.0646393    
0.17616      0.011541     0.0124622    0.0655146    
0.17854      0.0118532    0.0126264    0.0663894    
0.18092      0.0121694    0.0127904    0.0672637    
0.1833       0.0124896    0.0129543    0.0681376    
0.18568      0.012814     0.013118     0.0690111    
0.18806      0.0131424    0.0132815    0.0698841    
0.19044      0.0134749    0.0134448    0.0707566    
0.19282      0.0138114    0.013608     0.0716286    
0.1952       0.014152     0.0137711    0.0725002    
0.19758      0.0144967    0.0139339    0.0733713    
0.19996      0.0148454    0.0140966    0.0742419    
0.20234      0.0151982    0.014259     0.075112     
0.20472      0.015555     0.0144214    0.0759816    
0.2071       0.0159158    0.0145835    0.0768507    
0.20948      0.0162806    0.0147454    0.0777193    
0.21186      0.0166495    0.0149072    0.0785874    
0.21424      0.0170224    0.0150687    0.079455     
0.21662      0.0173994    0.0152301    0.0803221    
0.219        0.0177803    0.0153913    0.0811887    
0.22138      0.0181653    0.0155522    0.0820547    
0.22376      0.0185542    0.015713     0.0829202    
0.22614      0.0189472    0.0158736    0.0837851    
0.22852      0.0193441    0.016034     0.0846495    
0.2309       0.019745     0.0161942    0.0855134    
0.23328      0.02015      0.0163541    0.0863767    
0.23566      0.0205588    0.0165139    0.0872394    
0.23804      0.0209717    0.0166735    0.0881016    
0.24042      0.0213885    0.0168328    0.0889632    
0.2428       0.0218093    0.0169919    0.0898243    
0.24518      0.0222341    0.0171509    0.0906847    
0.24756      0.0226628    0.0173096    0.0915446    
0.24994      0.0230954    0.017468     0.0924039    
0.25232      0.023532     0.0176263    0.0932626    
0.2547       0.0239725    0.0177843    0.0941207    
0.25708      0.024417     0.0179421    0.0949782    
0.25946      0.0248654    0.0180997    0.095835     
0.26184      0.0253177    0.0182571    0.0966913    
0.26422      0.0257739    0.0184142    0.0975469    
0.2666       0.026234     0.0185711    0.098402     
0.26898      0.026698     0.0187277    0.0992564    
0.27136      0.0271659    0.0188842    0.10011      
0.27374      0.0276377    0.0190403    0.100963     
0.27612      0.0281134    0.0191963    0.101816     
0.2785       0.0285929    0.019352     0.102668     
0.28088      0.0290763    0.0195074    0.103519     
0.28326      0.0295636    0.0196626    0.104369     
0.28564      0.0300548    0.0198176    0.105219     
0.28802      0.0305498    0.0199723    0.106068     
0.2904       0.0310486    0.0201268    0.106917     
0.29278      0.0315513    0.020281     0.107765     
0.29516      0.0320578    0.0204349    0.108612     
0.29754      0.0325682    0.0205886    0.109458     
0.29992      0.0330824    0.020742     0.110304     
0.3023       0.0336003    0.0208952    0.111149     
0.30468      0.0341221    0.0210481    0.111993     
0.30706      0.0346477    0.0212008    0.112837     
0.30944      0.0351771    0.0213531    0.11368      
0.31182      0.0357103    0.0215052    0.114522     
0.3142       0.0362472    0.0216571    0.115364     
0.31658      0.036788     0.0218086    0.116204     
0.31896      0.0373325    0.0219599    0.117044     
0.32134      0.0378807    0.0221109    0.117884     
0.32372      0.0384327    0.0222616    0.118722     
0.3261       0.0389885    0.0224121    0.11956      
0.32848      0.039548     0.0225623    0.120397     
0.33086      0.0401112    0.0227122    0.121233     
0.33324      0.0406782    0.0228618    0.122069     
0.33562      0.0412488    0.0230111    0.122903     
0.338        0.0418232    0.0231601    0.123737     
0.34038      0.0424013    0.0233088    0.124571     
0.34276      0.0429831    0.0234573    0.125403     
0.34514      0.0435686    0.0236054    0.126235     
0.34752      0.0441577    0.0237532    0.127065     
0.3499       0.0447506    0.0239008    0.127895     
0.35228      0.0453471    0.024048     0.128725     
0.35466      0.0459472    0.024195     0.129553     
0.35704      0.0465511    0.0243416    0.130381     
0.35942      0.0471585    0.024488     0.131207     
0.3618       0.0477696    0.024634     0.132033     
0.36418      0.0483843    0.0247797    0.132858     
0.36656      0.0490027    0.0249251    0.133683     
0.36894      0.0496246    0.0250702    0.134506     
0.37132      0.0502502    0.025215     0.135329     
0.3737       0.0508794    0.0253595    0.13615      
0.37608      0.0515121    0.0255036    0.136971     
0.37846      0.0521485    0.0256475    0.137791     
0.38084      0.0527884    0.025791     0.13861      
0.38322      0.0534319    0.0259342    0.139429     
0.3856       0.0540789    0.026077     0.140246     
0.38798      0.0547295    0.0262195    0.141063     
0.39036      0.0553836    0.0263617    0.141878     
0.39274      0.0560413    0.0265036    0.142693     
0.39512      0.0567025    0.0266452    0.143507     
0.3975       0.0573672    0.0267864    0.14432      
0.39988      0.0580354    0.0269272    0.145132     
0.40226      0.0587071    0.0270678    0.145943     
0.40464      0.0593823    0.027208     0.146754     
0.40702      0.060061     0.0273478    0.147563     
0.4094       0.0607432    0.0274874    0.148371     
0.41178      0.0614288    0.0276265    0.149179     
0.41416      0.0621179    0.0277654    0.149985     
0.41654      0.0628105    0.0279038    0.150791     
0.41892      0.0635065    0.028042     0.151596     
0.4213       0.0642059    0.0281797    0.152399     
0.42368      0.0649087    0.0283172    0.153202     
0.42606      0.065615     0.0284542    0.154004     
0.42844      0.0663247    0.028591     0.154805     
0.43082      0.0670377    0.0287273    0.155605     
0.4332       0.0677542    0.0288633    0.156404     
0.43558      0.068474     0.028999     0.157202     
0.43796      0.0691972    0.0291342    0.157999     
0.44034      0.0699238    0.0292692    0.158795     
0.44272      0.0706537    0.0294037    0.15959      
0.4451       0.0713869    0.0295379    0.160384     
0.44748      0.0721235    0.0296717    0.161177     
0.44986      0.0728634    0.0298051    0.161969     
0.45224      0.0736067    0.0299382    0.16276      
0.45462      0.0743532    0.0300709    0.16355      
0.457        0.075103     0.0302032    0.164339     
0.45938      0.0758561    0.0303352    0.165127     
0.46176      0.0766125    0.0304667    0.165914     
0.46414      0.0773722    0.0305979    0.1667       
0.46652      0.0781351    0.0307287    0.167485     
0.4689       0.0789013    0.0308592    0.168269     
0.47128      0.0796707    0.0309892    0.169052     
0.47366      0.0804434    0.0311189    0.169834     
0.47604      0.0812192    0.0312481    0.170614     
0.47842      0.0819983    0.031377     0.171394     
0.4808       0.0827806    0.0315055    0.172173     
0.48318      0.0835661    0.0316336    0.17295      
0.48556      0.0843547    0.0317613    0.173727     
0.48794      0.0851466    0.0318886    0.174502     
0.49032      0.0859416    0.0320155    0.175276     
0.4927       0.0867397    0.032142     0.17605      
0.49508      0.087541     0.0322681    0.176822     
0.49746      0.0883454    0.0323938    0.177593     
0.49984      0.0891529    0.0325191    0.178363     
0.50222      0.0899636    0.032644     0.179132     
0.5046       0.0907773    0.0327685    0.1799       
0.50698      0.0915942    0.0328926    0.180666     
0.50936      0.0924141    0.0330162    0.181432     
0.51174      0.0932371    0.0331395    0.182196     
0.51412      0.0940632    0.0332624    0.18296      
0.5165       0.0948923    0.0333848    0.183722     
0.51888      0.0957245    0.0335068    0.184483     
0.52126      0.0965597    0.0336284    0.185243     
0.52364      0.0973979    0.0337496    0.186002     
0.52602      0.0982391    0.0338704    0.186759     
0.5284       0.0990833    0.0339907    0.187516     
0.53078      0.0999305    0.0341107    0.188271     
0.53316      0.100781     0.0342302    0.189025     
0.53554      0.101634     0.0343492    0.189778     
0.53792      0.10249      0.0344679    0.19053      
0.5403       0.103349     0.0345861    0.191281     
0.54268      0.104211     0.0347039    0.19203      
0.54506      0.105076     0.0348213    0.192779     
0.54744      0.105944     0.0349382    0.193526     
0.54982      0.106814     0.0350547    0.194272     
0.5522       0.107688     0.0351708    0.195017     
0.55458      0.108565     0.0352864    0.19576      
0.55696      0.109444     0.0354016    0.196502     
0.55934      0.110326     0.0355163    0.197244     
0.56172      0.111211     0.0356306    0.197984     
0.5641       0.112099     0.0357445    0.198722     
0.56648      0.11299      0.0358579    0.19946      
0.56886      0.113884     0.0359709    0.200196     
0.57124      0.11478      0.0360834    0.200931     
0.57362      0.115679     0.0361955    0.201665     
0.576        0.116581     0.0363072    0.202398     
0.57838      0.117486     0.0364183    0.203129     
0.58076      0.118393     0.0365291    0.203859     
0.58314      0.119304     0.0366394    0.204588     
0.58552      0.120217     0.0367492    0.205316     
0.5879       0.121132     0.0368586    0.206042     
0.59028      0.122051     0.0369675    0.206768     
0.59266      0.122972     0.0370759    0.207491     
0.59504      0.123896     0.0371839    0.208214     
0.59742      0.124822     0.0372915    0.208935     
0.5998       0.125751     0.0373986    0.209655     
0.60218      0.126683     0.0375052    0.210374     
0.60456      0.127618     0.0376113    0.211092     
0.60694      0.128555     0.037717     0.211808     
0.60932      0.129495     0.0378222    0.212523     
0.6117       0.130437     0.037927     0.213237     
0.61408      0.131382     0.0380313    0.213949     
0.61646      0.132329     0.0381351    0.21466      
0.61884      0.133279     0.0382384    0.21537      
0.62122      0.134232     0.0383413    0.216078     
0.6236       0.135187     0.0384437    0.216785     
0.62598      0.136145     0.0385456    0.217491     
0.62836      0.137105     0.0386471    0.218196     
0.63074      0.138068     0.038748     0.218899     
0.63312      0.139034     0.0388485    0.219601     
0.6355       0.140001     0.0389485    0.220301     
0.63788      0.140972     0.0390481    0.221        
0.64026      0.141945     0.0391471    0.221698     
0.64264      0.14292      0.0392457    0.222395     
0.64502      0.143897     0.0393438    0.22309      
0.6474       0.144878     0.0394414    0.223784     
0.64978      0.14586      0.0395385    0.224476     
0.65216      0.146845     0.0396351    0.225167     
0.65454      0.147832     0.0397312    0.225857     
0.65692      0.148822     0.0398268    0.226545     
0.6593       0.149814     0.039922     0.227232     
0.66168      0.150809     0.0400167    0.227918     
0.66406      0.151806     0.0401108    0.228602     
0.66644      0.152805     0.0402045    0.229285     
0.66882      0.153806     0.0402977    0.229966     
0.6712       0.15481      0.0403903    0.230647     
0.67358      0.155816     0.0404825    0.231325     
0.67596      0.156824     0.0405742    0.232002     
0.67834      0.157835     0.0406654    0.232678     
0.68072      0.158848     0.040756     0.233353     
0.6831       0.159863     0.0408462    0.234026     
0.68548      0.160881     0.0409359    0.234698     
0.68786      0.1619       0.0410251    0.235368     
0.69024      0.162922     0.0411137    0.236037     
0.69262      0.163946     0.0412019    0.236704     
0.695        0.164972     0.0412895    0.23737      
0.69738      0.166001     0.0413767    0.238035     
0.69976      0.167031     0.0414633    0.238698     
0.70214      0.168064     0.0415494    0.23936      
0.70452      0.169099     0.0416351    0.24002      
0.7069       0.170136     0.0417202    0.240679     
0.70928      0.171175     0.0418047    0.241336     
0.71166      0.172216     0.0418888    0.241992     
0.71404      0.173259     0.0419724    0.242646     
0.71642      0.174305     0.0420554    0.243299     
0.7188       0.175352     0.0421379    0.243951     
0.72118      0.176401     0.04222      0.244601     
0.72356      0.177453     0.0423014    0.24525      
0.72594      0.178506     0.0423824    0.245897     
0.72832      0.179562     0.0424629    0.246543     
0.7307       0.180619     0.0425428    0.247187     
0.73308      0.181679     0.0426222    0.24783      
0.73546      0.18274      0.0427011    0.248471     
0.73784      0.183804     0.0427794    0.249111     
0.74022      0.184869     0.0428573    0.249749     
0.7426       0.185936     0.0429346    0.250386     
0.74498      0.187006     0.0430114    0.251021     
0.74736      0.188077     0.0430876    0.251655     
0.74974      0.18915      0.0431634    0.252287     
0.75212      0.190225     0.0432385    0.252918     
0.7545       0.191301     0.0433132    0.253547     
0.75688      0.19238      0.0433874    0.254175     
0.75926      0.19346      0.043461     0.254801     
0.76164      0.194543     0.043534     0.255426     
0.76402      0.195627     0.0436066    0.256049     
0.7664       0.196713     0.0436786    0.256671     
0.76878      0.1978       0.04375      0.257291     
0.77116      0.19889      0.043821     0.25791      
0.77354      0.199981     0.0438914    0.258527     
0.77592      0.201074     0.0439612    0.259142     
0.7783       0.202168     0.0440305    0.259756     
0.78068      0.203265     0.0440993    0.260369     
0.78306      0.204363     0.0441676    0.26098      
0.78544      0.205463     0.0442353    0.261589     
0.78782      0.206564     0.0443024    0.262197     
0.7902       0.207667     0.0443691    0.262803     
0.79258      0.208772     0.0444351    0.263408     
0.79496      0.209878     0.0445007    0.264011     
0.79734      0.210986     0.0445657    0.264613     
0.79972      0.212096     0.0446301    0.265213     
0.8021       0.213207     0.044694     0.265811     
0.80448      0.21432      0.0447574    0.266408     
0.80686      0.215434     0.0448202    0.267003     
0.80924      0.21655      0.0448824    0.267597     
0.81162      0.217668     0.0449441    0.268189     
0.814        0.218787     0.0450053    0.26878      
0.81638      0.219907     0.0450659    0.269369     
0.81876      0.221029     0.045126     0.269956     
0.82114      0.222153     0.0451855    0.270542     
0.82352      0.223278     0.0452445    0.271126     
0.8259       0.224404     0.0453029    0.271709     
0.82828      0.225532     0.0453607    0.27229      
0.83066      0.226661     0.045418     0.272869     
0.83304      0.227792     0.0454748    0.273447     
0.83542      0.228924     0.045531     0.274023     
0.8378       0.230058     0.0455866    0.274598     
0.84018      0.231193     0.0456417    0.27517      
0.84256      0.232329     0.0456963    0.275742     
0.84494      0.233467     0.0457502    0.276311     
0.84732      0.234606     0.0458036    0.27688      
0.8497       0.235746     0.0458565    0.277446     
0.85208      0.236887     0.0459088    0.278011     
0.85446      0.23803      0.0459606    0.278574     
0.85684      0.239175     0.0460117    0.279136     
0.85922      0.24032      0.0460624    0.279696     
0.8616       0.241467     0.0461124    0.280254     
0.86398      0.242615     0.0461619    0.28081      
0.86636      0.243764     0.0462109    0.281365     
0.86874      0.244914     0.0462593    0.281919     
0.87112      0.246066     0.0463071    0.28247      
0.8735       0.247218     0.0463543    0.283021     
0.87588      0.248372     0.046401     0.283569     
0.87826      0.249527     0.0464472    0.284116     
0.88064      0.250684     0.0464927    0.284661     
0.88302      0.251841     0.0465377    0.285204     
0.8854       0.252999     0.0465822    0.285746     
0.88778      0.254159     0.0466261    0.286286     
0.89016      0.25532      0.0466694    0.286824     
0.89254      0.256481     0.0467121    0.287361     
0.89492      0.257644     0.0467543    0.287896     
0.8973       0.258808     0.0467959    0.28843      
0.89968      0.259973     0.0468369    0.288961     
0.90206      0.261138     0.0468774    0.289491     
0.90444      0.262305     0.0469173    0.29002      
0.90682      0.263473     0.0469566    0.290546     
0.9092       0.264642     0.0469954    0.291071     
0.91158      0.265812     0.0470336    0.291594     
0.91396      0.266982     0.0470712    0.292116     
0.91634      0.268154     0.0471083    0.292636     
0.91872      0.269327     0.0471448    0.293154     
0.9211       0.2705       0.0471807    0.293671     
0.92348      0.271674     0.0472161    0.294185     
0.92586      0.27285      0.0472509    0.294699     
0.92824      0.274026     0.0472851    0.29521      
0.93062      0.275203     0.0473187    0.29572      
0.933        0.27638      0.0473518    0.296228     
0.93538      0.277559     0.0473843    0.296734     
0.93776      0.278738     0.0474162    0.297238     
0.94014      0.279918     0.0474475    0.297741     
0.94252      0.281099     0.0474783    0.298242     
0.9449       0.282281     0.0475085    0.298742     
0.94728      0.283463     0.0475382    0.299239     
0.94966      0.284646     0.0475672    0.299735     
0.95204      0.28583      0.0475957    0.300229     
0.95442      0.287015     0.0476236    0.300722     
0.9568       0.2882       0.0476509    0.301213     
0.95918      0.289386     0.0476777    0.301702     
0.96156      0.290573     0.0477039    0.302189     
0.96394      0.29176      0.0477295    0.302674     
0.96632      0.292948     0.0477546    0.303158     
0.9687       0.294136     0.047779     0.30364      
0.97108      0.295325     0.0478029    0.30412      
0.97346      0.296515     0.0478262    0.304599     
0.97584      0.297705     0.047849     0.305076     
0.97822      0.298896     0.0478711    0.305551     
0.9806       0.300087     0.0478927    0.306024     
0.98298      0.301279     0.0479137    0.306496     
