# mass number (A) = 40
# number of protons (Z) = 18
#units k = 1/fm , units n_1(k) = fm^3# k (1/fm)	n	p	tot
0.0	82.2840973898	82.4542452527	164.738342642
0.02	82.160568846	82.330271094	164.49083994
0.04	81.7928718291	81.9610129998	163.753884829
0.06	81.1895786701	81.3543777035	162.543956374
0.08	80.3646683236	80.5232583285	160.887926652
0.1	79.3370758832	79.4851185615	158.822194445
0.12	78.1300852163	78.2614326416	156.391517858
0.14	76.7705868766	76.8770021649	153.647589041
0.16	75.2882281842	75.3591751398	150.647403324
0.18	73.7144860081	73.7369960812	147.451482089
0.2	72.0816951956	72.040318089	144.122013285
0.22	70.4220666913	70.2989087341	140.720975425
0.24	68.7667291558	68.5415811666	137.308310322
0.26	67.1448263557	66.7953802033	133.940206559
0.28	65.5826998547	65.0848503531	130.667550208
0.3	64.1031827252	63.4314089394	127.534591665
0.32	62.7250253015	61.8528428712	124.577868173
0.34	61.4624686332	60.3629424223	121.825411056
0.36	60.3249755035	58.9712798283	119.296255332
0.38	59.3171229002	57.6831348636	117.000257764
0.4	58.4386539198	56.4995640454	114.938217965
0.42	57.6846814763	55.4176049579	113.102286434
0.44	57.0460310965	54.4306025994	111.476633696
0.46	56.5097056868	53.5286407844	110.038346471
0.48	56.0594516038	52.6990586231	108.758510227
0.5	55.676402751	51.9270300093	107.60343276
0.52	55.3397778137	51.1961829408	106.535960755
0.54	55.0276051432	50.4892353333	105.516840477
0.56	54.7174501866	49.7886247505	104.506074937
0.58	54.3871216452	49.0771110437	103.464232689
0.6	54.0153346413	48.3383331845	102.353667826
0.62	53.5823119394	47.5573044193	101.139616359
0.64	53.0703075574	46.7208331381	99.7911406955
0.66	52.4640407476	45.817860362	98.2819011096
0.68	51.7510321674	44.8397083531	96.5907405205
0.7	50.921837925	43.7802383891	94.7020763141
0.72	49.9701809289	42.6359190849	92.6061000138
0.74	48.8929824577	41.4058096612	90.2987921189
0.76	47.6902999786	40.0914651707	87.7817651493
0.78	46.3651798954	38.6967728217	85.0619527171
0.8	44.9234360371	37.2277301395	82.1511661765
0.82	43.3733662619	35.6921767777	79.0655430396
0.84	41.7254205479	34.0994923237	75.8249128717
0.86	39.9918343797	32.4602724749	72.4521068546
0.88	38.1862411526	30.785995545	68.9722366976
0.9	36.323276763	29.0886904441	65.4119672071
0.92	34.4181885881	27.3806161454	61.7988047334
0.94	32.4864597749	25.6739612715	58.1604210463
0.96	30.5434582184	23.9805708976	54.5240291161
0.98	28.6041179096	22.3117060379	50.9158239474
1.0	26.6826585482	20.6778396389	47.3604981871
1.02	24.7923475211	19.0884913148	43.8808388359
1.04	22.9453066058	17.5521015647	40.4974081705
1.06	21.1523641382	16.0759448746	37.2283090128
1.08	19.4229519147	14.6660799454	34.0890318601
1.1	17.7650448302	13.3273343264	31.0923791567
1.12	16.1851401981	12.0633199889	28.248460187
1.14	14.688272869	10.8764758381	25.5647487071
1.16	13.2780616703	9.76813283105	23.0461945014
1.18	11.9567823063	8.73859722635	20.6953795327
1.2	10.7254616899	7.78724752011	18.51270921
1.22	9.58398868838	6.91264079368	16.4966294821
1.24	8.53123643744	6.11262448963	14.6438609271
1.26	7.56519168145	5.38445001276	12.9496416942
1.28	6.68308700447	4.72488499852	11.407972003
1.3	5.88153229683	4.13032157392	10.0118538708
1.32	5.15664232923	3.59687843572	8.75352076496
1.34	4.50415785596	3.12049506457	7.62465292053
1.36	3.91955821754	2.69701686756	6.61657508511
1.38	3.39816394377	2.32227048018	5.72043442395
1.4	2.93522835394	1.99212885303	4.92735720697
1.42	2.5260176024	1.70256609236	4.22858369476
1.44	2.16587901449	1.44970231233	3.61558132683
1.46	1.85029789757	1.22983899066	3.08013688824
1.48	1.57494329054	1.03948549899	2.61442878953
1.5	1.33570333526	0.875377608077	2.21108094334
1.52	1.12871111627	0.73448885011	1.86319996638
1.54	0.950361925321	0.614035661675	1.564397587
1.56	0.79732297121	0.511477237028	1.30880020824
1.58	0.666536577318	0.424510998277	1.0910475756
1.6	0.555217897706	0.351064543245	0.906282440951
1.62	0.460848142565	0.289284868697	0.750133011261
1.64	0.381164242554	0.237525591686	0.61868983424
1.66	0.314145804566	0.194332809657	0.508478614223
1.68	0.25800012426	0.15843015476	0.41643027902
1.7	0.211145927988	0.128703512884	0.339849440873
1.72	0.172196422467	0.104185795947	0.276382218414
1.74	0.139942138014	0.0840420790161	0.22398421703
1.76	0.113333962955	0.0675553433516	0.180889306306
1.78	0.0914666847865	0.0541130033398	0.145579688126
1.8	0.0735632792079	0.0431943400724	0.11675761928
1.82	0.058960121934	0.0343589170592	0.0933190389932
1.84	0.0470932407058	0.0272360140836	0.0743292547894
1.86	0.0374856760013	0.021515083077	0.0590007590783
1.88	0.0297359783782	0.0169372045301	0.0466731829082
1.9	0.0235078375951	0.0132875036695	0.0367953412647
1.92	0.0185208129923	0.0103884716847	0.028909284677
1.94	0.0145421152987	0.00809412790848	0.0226362432072
1.96	0.0113793762684	0.00628495331816	0.0176643295866
1.98	0.00887433350766	0.00486352330721	0.0137378568149
2.0	0.00689735276362	0.00375076775305	0.0106481205167
2.02	0.00534270805293	0.00288278838289	0.00822549643582
2.04	0.00412454064734	0.00220816681897	0.00633270746631
2.06	0.00317342049784	0.00168570103087	0.00485912152871
2.08	0.00243343764556	0.00128251287633	0.0037159505219
2.1	0.00185975609071	0.000972474679969	0.00283223077068
2.12	0.00141656809836	0.000734908148922	0.00215147624728
2.14	0.00107539271275	0.000553514178866	0.00162890689162
2.16	0.000813668091474	0.000415497132374	0.00122916522385
2.18	0.00061359297788	0.00031085188451	0.00092444486239
2.2	0.000461178073242	0.0002317862704	0.000692964343642
2.22	0.00034547315784	0.00017225550599	0.00051772866383
2.24	0.000257940487542	0.00012758867661	0.000385529164152
2.26	0.000191949229481	9.41905042451e-05	0.000286139733726
2.28	0.000142369489916	6.93043311647e-05	0.00021167382108
2.3	0.000105247837537	5.0824619799e-05	0.000156072457336
2.32	7.75491563303e-05	3.71492966153e-05	0.000114698452946
2.34	5.69522014022e-05	2.70639936181e-05	8.40161950203e-05
2.36	4.16884116122e-05	1.96516981539e-05	6.13401097661e-05
2.38	3.04153894168e-05	1.42225424429e-05	4.46379318597e-05
2.4	2.21180266668e-05	1.02594795788e-05	3.23775062456e-05
2.42	1.60315700325e-05	7.37643135705e-06	2.34080013896e-05
2.44	1.15820143246e-05	5.28618133957e-06	1.68681956642e-05
2.46	8.34011693718e-06	3.77584745487e-06	1.21159643921e-05
2.48	5.98606989762e-06	2.68822283234e-06	8.67429272996e-06
2.5	4.28247259085e-06	1.90763948089e-06	6.19011207175e-06
2.52	3.0537402403e-06	1.34930236012e-06	4.40304260042e-06
2.54	2.17047993548e-06	9.51274576195e-07	3.12175451167e-06
2.56	1.5376840175e-06	6.68479025065e-07	2.20616304256e-06
2.58	1.08584413976e-06	4.68227137898e-07	1.55407127766e-06
2.6	7.64290291516e-07	3.26899201513e-07	1.09118949303e-06
2.62	5.36217540073e-07	2.27489400589e-07	7.63706940662e-07
2.64	3.7498754505e-07	1.57797461899e-07	5.32785006949e-07
2.66	2.61388891956e-07	1.09101791187e-07	3.70490683142e-07
2.68	1.81615597861e-07	7.51896764104e-08	2.56805274272e-07
2.7	1.25781318145e-07	5.16512023395e-08	1.77432520484e-07
2.72	8.68315072616e-08	3.53671387767e-08	1.22198646038e-07
2.74	5.97500034039e-08	2.41389317199e-08	8.38889351238e-08
2.76	4.09825611722e-08	1.64223809994e-08	5.74049421716e-08
2.78	2.80196025191e-08	1.11366727842e-08	3.91562753033e-08
2.8	1.9095352507e-08	7.52796044067e-09	2.66233129476e-08
2.82	1.29717128104e-08	5.07227717505e-09	1.80439899854e-08
2.84	8.78358852037e-09	3.40669795545e-09	1.21902864758e-08
2.86	5.92860762536e-09	2.28071218293e-09	8.20931980828e-09
2.88	3.98878416689e-09	1.52200019628e-09	5.51078436317e-09
2.9	2.67507821056e-09	1.01243571571e-09	3.68751392627e-09
2.92	1.78830480212e-09	6.71320417116e-10	2.45962521924e-09
2.94	1.19167187401e-09	4.43713873263e-10	1.63538574727e-09
2.96	7.91558250207e-10	2.92339833631e-10	1.08389808384e-09
2.98	5.24108318706e-10	1.91993214571e-10	7.16101533277e-10
3.0	3.45917177931e-10	1.25689124739e-10	4.7160630267e-10
3.02	2.27581529598e-10	8.20208906729e-11	3.09602420271e-10
3.04	1.49250772602e-10	5.33540286618e-11	2.02604801264e-10
3.06	9.75689715432e-11	3.45960800512e-11	1.32165051594e-10
3.08	6.35804041349e-11	2.23616821589e-11	8.59420862938e-11
3.1	4.13001945477e-11	1.44079068749e-11	5.57081014225e-11
3.12	2.67423144389e-11	9.25373561465e-12	3.59960500535e-11
3.14	1.72609531479e-11	5.92453081642e-12	2.31854839644e-11
3.16	1.11058100304e-11	3.78104992214e-12	1.48868599526e-11
3.18	7.12288892139e-12	2.40543324482e-12	9.52832216621e-12
3.2	4.55389837758e-12	1.52544837483e-12	6.07934675242e-12
3.22	2.90223438849e-12	9.64330431539e-13	3.86656482003e-12
3.24	1.84375987449e-12	6.07685970238e-13	2.45144584472e-12
3.26	1.16761506494e-12	3.81731800835e-13	1.54934686577e-12
3.28	7.37087746281e-13	2.39036413838e-13	9.76124160119e-13
3.3	4.63835055062e-13	1.49209736972e-13	6.13044792034e-13
3.32	2.90960150186e-13	9.28449767839e-14	3.8380512697e-13
3.34	1.81940634458e-13	5.75901968396e-14	2.39530831298e-13
3.36	1.13410382627e-13	3.5609703789e-14	1.49020086416e-13
3.38	7.04698754091e-14	2.19491919722e-14	9.24190673814e-14
3.4	4.36498159747e-14	1.34865171234e-14	5.7136333098e-14
3.42	2.6951950097e-14	8.26062447839e-15	3.52125745754e-14
3.44	1.65892771112e-14	5.04380683024e-15	2.16330839415e-14
3.46	1.01787591619e-14	3.06999159104e-15	1.3248750753e-14
3.48	6.22576800021e-15	1.86272940759e-15	8.08849740779e-15
3.5	3.79596625587e-15	1.12667033332e-15	4.92263658918e-15
3.52	2.30719158425e-15	6.7932734551e-16	2.98651892976e-15
3.54	1.39790436425e-15	4.08316679868e-16	1.80622104412e-15
3.56	8.44314641103e-16	2.44653570273e-16	1.08896821138e-15
3.58	5.08352309299e-16	1.46131223962e-16	6.5448353326e-16
3.6	3.05112117964e-16	8.7010590993e-17	3.92122708957e-16
3.62	1.825529411e-16	5.16463272774e-17	2.34199268377e-16
3.64	1.08881343722e-16	3.05594533255e-17	1.39440797048e-16
3.66	6.47371983025e-17	1.8025657226e-17	8.27628555285e-17
3.68	3.83698977009e-17	1.05992855359e-17	4.89691832368e-17
3.7	2.26706624548e-17	6.21301767533e-18	2.88836801301e-17
3.72	1.33528852249e-17	3.63052681554e-18	1.69834120404e-17
3.74	7.84014071701e-18	2.11484387102e-18	9.95498458803e-18
3.76	4.5889246722e-18	1.22808692293e-18	5.81701159513e-18
3.78	2.67754523037e-18	7.10922991376e-19	3.38846822174e-18
3.8	1.55740655584e-18	4.10260007865e-19	1.96766656371e-18
3.82	9.03039920566e-19	2.36014935511e-19	1.13905485608e-18
3.84	5.21977923412e-19	1.35351778651e-19	6.57329702063e-19
3.86	3.00772423863e-19	7.73807823248e-20	3.78153206188e-19
3.88	1.72768691668e-19	4.41008964419e-20	2.1686958811e-19
3.9	9.89312893159e-20	2.50557465609e-20	1.23987035877e-19
3.92	5.64734514311e-20	1.41910122606e-20	7.06644636917e-20
3.94	3.21364178472e-20	8.01246162914e-21	4.01488794764e-20
3.96	1.82302868766e-20	4.50988600958e-21	2.27401728862e-20
3.98	1.03093875721e-20	2.53053664074e-21	1.28399242129e-20
4.0	5.81187113108e-21	1.41549258784e-21	7.22736371892e-21
4.02	3.26620352534e-21	7.89316003767e-22	4.05551952911e-21
4.04	1.82984825543e-21	4.3877612177e-22	2.2686243772e-21
4.06	1.02195524652e-21	2.431555866e-22	1.26511083312e-21
4.08	5.68976126386e-22	1.34330652776e-22	7.03306779162e-22
4.1	3.15792614209e-22	7.39802874541e-23	3.89772901663e-22
4.12	1.74725397579e-22	4.0616951459e-23	2.15342349038e-22
4.14	9.63732784603e-23	2.22305113163e-23	1.18603789777e-22
4.16	5.29912462635e-23	1.21294969817e-23	6.51207432453e-23
4.18	2.90468412354e-23	6.59762652372e-24	3.56444677592e-23
4.2	1.58723537355e-23	3.57754119656e-24	1.9449894932e-23
4.22	8.64632917103e-24	1.93389956071e-24	1.05802287317e-23
4.24	4.69537804607e-24	1.04216362783e-24	5.7375416739e-24
4.26	2.54189781259e-24	5.59874903478e-25	3.10177271607e-24
4.28	1.37181226967e-24	2.99846884715e-25	1.67165915439e-24
4.3	7.38041355465e-25	1.60089146327e-25	8.98130501792e-25
4.32	3.95837079774e-25	8.52076120123e-26	4.81044691786e-25
4.34	2.11642240064e-25	4.5211550681e-26	2.56853790745e-25
4.36	1.12807677572e-25	2.39152682082e-26	1.3672294578e-25
4.38	5.99412410029e-26	1.2611196401e-26	7.25524374039e-26
4.4	3.17514739988e-26	6.62968409648e-27	3.83811580953e-26
4.42	1.67669266342e-26	3.47444322796e-27	2.02413698622e-26
4.44	8.82662684523e-27	1.81523880394e-27	1.06418656492e-26
4.46	4.63220866106e-27	9.45450496836e-28	5.57765915789e-27
4.48	2.42344862669e-27	4.90908573348e-28	2.91435720004e-27
4.5	1.2639566668e-27	2.54108705613e-28	1.51806537241e-27
4.52	6.57178761824e-28	1.31128134237e-28	7.8830689606e-28
4.54	3.40634100868e-28	6.74574519004e-29	4.08091552769e-28
4.56	1.76013626807e-28	3.45956897213e-29	2.10609316528e-28
4.58	9.06688943898e-29	1.76877405394e-29	1.08356634929e-28
4.6	4.65612357679e-29	9.01532358383e-30	5.55765593518e-29
4.62	2.38366441973e-29	4.58088259115e-30	2.84175267885e-29
4.64	1.21652335542e-29	2.32047111317e-30	1.44857046674e-29
4.66	6.18943192857e-30	1.17182461112e-30	7.3612565397e-30
4.68	3.13932595876e-30	5.89941274668e-31	3.72926723342e-30
4.7	1.5873678749e-30	2.96084000558e-31	1.88345187545e-30
4.72	8.00155859128e-31	1.48143075765e-31	9.48298934893e-31
4.74	4.02094088976e-31	7.38938507213e-32	4.75987939697e-31
4.76	2.01436028361e-31	3.67448117555e-32	2.38180840116e-31
4.78	1.00601217493e-31	1.82156553096e-32	1.18816872802e-31
4.8	5.00871371197e-32	9.00232883482e-33	5.90894659545e-32
4.82	2.48602976792e-32	4.43533572088e-33	2.92956334001e-32
4.84	1.23010968642e-32	2.17851184252e-33	1.44796087067e-32
4.86	6.06790820668e-33	1.06673218725e-33	7.13464039393e-33
4.88	2.98395360236e-33	5.20730678289e-34	3.50468428065e-33
4.9	1.4628617226e-33	2.5341566631e-34	1.71627738891e-33
4.92	7.14945401943e-34	1.22946599831e-34	8.37892001774e-34
4.94	3.48338206287e-34	5.94651593589e-35	4.07803365646e-34
4.96	1.69195269617e-34	2.86729174716e-35	1.97868187088e-34
4.98	8.19283919986e-35	1.37830281769e-35	9.57114201755e-35
5.0	3.95494081133e-35	6.60512575876e-36	4.61545338721e-35
#normalisation = 40.0
