# mass number (A) = 9
# number of protons (Z) = 4
#units k = 1/fm , units n_1(k) = fm^3
# k (1/fm)	n	p	tot
0.0	19.072378706	19.1118167576	38.1841954635
0.02	19.0723682897	19.1051436873	38.177511977
0.04	19.0722123938	19.0850827998	38.1572951937
0.06	19.0715396781	19.0515103731	38.1230500512
0.08	19.0697398558	19.0042245313	38.0739643871
0.1	19.0659764158	18.9429516255	38.0089280413
0.12	19.0592040433	18.8673549484	37.9265589917
0.14	19.04819036	18.7770455713	37.8252359313
0.16	19.031541512	18.6715950415	37.7031365535
0.18	19.0077310556	18.5505496333	37.5582806889
0.2	18.9751315222	18.4134458104	37.3885773326
0.22	18.9320479929	18.2598265304	37.1918745233
0.24	18.8767529771	18.0892580036	36.9660109807
0.26	18.8075218718	17.9013465104	36.7088683822
0.28	18.7226682747	17.6957548832	36.4184231579
0.3	18.6205784411	17.4722182705	36.0927967116
0.32	18.499744203	17.2305588212	35.7303030242
0.34	18.3587937172	16.970698955	35.3294926722
0.36	18.196519467	16.6926729238	34.8891923908
0.38	18.0119030132	16.3966364092	34.4085394223
0.4	17.8041360706	16.0828739513	33.8870100218
0.42	17.5726375753	15.7518040562	33.3244416315
0.44	17.3170664992	15.4039818826	32.7210483818
0.46	17.0373302651	15.0400994643	32.0774297293
0.48	16.7335887111	14.6609834817	31.3945721928
0.5	16.4062536469	14.2675906464	30.6738442933
0.52	16.0559841325	13.8610008146	29.9169849471
0.54	15.6836776958	13.4424079905	29.1260856864
0.56	15.2904577771	13.0131094225	28.3035671996
0.58	14.8776577558	12.5744930274	27.4521507832
0.6	14.4468019705	12.1280234098	26.5748253804
0.62	13.9995841842	11.6752267594	25.6748109436
0.64	13.5378439798	11.2176749286	24.7555189083
0.66	13.0635415906	10.7569689942	23.8205105848
0.68	12.5787316764	10.2947226101	22.8734542865
0.7	12.0855365532	9.83254544663	21.9180819999
0.72	11.5861193684	9.37202700334	20.9581463718
0.74	11.0826576904	8.91472105751	19.9973787479
0.76	10.5773179463	8.46213099116	19.0394489374
0.78	10.0722311033	8.01569620818	18.0879273115
0.8	9.5694699401	7.57677982382	17.1462497639
0.82	9.07102820574	7.14665777451	16.2176859803
0.84	8.57880190882	6.72650946198	15.3053113708
0.86	8.09457292381	6.3174100102	14.411982934
0.88	7.61999504636	5.92032417968	13.540319226
0.9	7.15658257433	5.53610194989	12.6926845242
0.92	6.7057014393	5.16547574947	11.8711771888
0.94	6.26856286409	4.8090592851	11.0776221492
0.96	5.84621947731	4.46734789373	10.313567371
0.98	5.43956377554	4.14072032071	9.58028409625
1.0	5.04932878965	3.82944180708	8.87877059673
1.02	4.67609078253	3.53366835447	8.209759137
1.04	4.32027378263	3.2534520244	7.57372580703
1.06	3.98215574062	2.98874712149	6.97090286211
1.08	3.66187608496	2.73941710584	6.40129319081
1.1	3.35944444669	2.50524207943	5.86468652613
1.12	3.07475032241	2.28592669384	5.36067701625
1.14	2.80757344902	2.08110833199	4.88868178101
1.16	2.55759467133	1.89036542435	4.44796009568
1.18	2.32440709563	1.71322576964	4.03763286527
1.2	2.10752733656	1.54917474181	3.65670207838
1.22	1.906406682	1.39766327735	3.30406995935
1.24	1.72044201884	1.25811555065	2.97855756949
1.26	1.54898638274	1.12993625903	2.67892264177
1.28	1.39135901516	1.01251745295	2.40387646811
1.3	1.24685483143	0.905244860936	2.15209969236
1.32	1.114753224	0.807503672006	1.922256896
1.34	0.994326144127	0.718683751008	1.71300989514
1.36	0.884845423809	0.638184274212	1.52302969802
1.38	0.785589316555	0.565417783052	1.35100709961
1.4	0.695848251219	0.4998136636	1.19566191482
1.42	0.614929806654	0.44082106766	1.05575087431
1.44	0.542162927035	0.387911298509	0.930074225544
1.46	0.476901407784	0.340579690149	0.817481097933
1.48	0.418526690355	0.298347013587	0.716873703943
1.5	0.366450010774	0.260760447118	0.627210457892
1.52	0.320113951685	0.227394149951	0.547508101636
1.54	0.278993451068	0.19784947992	0.476842930988
1.56	0.242596322723	0.171754896427	0.414351219151
1.58	0.210463344282	0.14876558949	0.359228933772
1.6	0.182167968087	0.128562874685	0.310730842772
1.62	0.157315708867	0.110853392229	0.268169101096
1.64	0.135543259974	0.0953681463354	0.230911406309
1.66	0.116517387089	0.0818614185836	0.198378805673
1.68	0.0999336450269	0.0701095863537	0.170043231381
1.7	0.0855149595733	0.0599098745018	0.145424834075
1.72	0.0730101124164	0.0510790655224	0.124089177939
1.74	0.0621921632089	0.0434521904701	0.105644353679
1.76	0.0528568387856	0.0368812199855	0.0897380587711
1.78	0.0448209155968	0.0312337719441	0.0760546875409
1.8	0.0379206175945	0.0263918495472	0.0643124671417
1.82	0.0320100481823	0.0222506211484	0.0542606693307
1.84	0.0269596714384	0.0187172507697	0.0456769222081
1.86	0.0226548546903	0.0157097861337	0.038364640824
1.88	0.0189944816744	0.0131561091224	0.0321505907968
1.9	0.0158896429568	0.0109929518797	0.0268825948365
1.92	0.013262408041	0.00916498029428	0.0224273883353
1.94	0.0110446816237	0.00762394533203	0.0186686269557
1.96	0.00917714478002	0.00632790161681	0.0155050463968
1.98	0.0076082804507	0.00524049177681	0.0128487722275
2.0	0.00629348143866	0.00433029436373	0.0106237758024
2.02	0.00519423819434	0.00357023259946	0.0087644707938
2.04	0.00427740294302	0.0029370407925	0.00721444373552
2.06	0.00351452617072	0.00241078497814	0.00592531114886
2.08	0.00288126110999	0.00197443415576	0.00485569526574
2.1	0.0023568316336	0.00161347840837	0.00397031004198
2.12	0.00192355885086	0.00131559017853	0.00323914902939
2.14	0.00156644168858	0.00107032502702	0.0026367667156
2.16	0.00127278680861	0.000868858305059	0.00214164511367
2.18	0.00103188334906	0.000703754313476	0.00173563766254
2.2	0.000834718162521	0.000568764696145	0.00140348285867
2.22	0.000673727448685	0.000458653008595	0.00113238045728
2.24	0.000542580928729	0.000369042610404	0.000911623539133
2.26	0.000435994975461	0.000296285244365	0.000732280219826
2.28	0.000349571388095	0.000237347881508	0.000586919269603
2.3	0.000279658776715	0.000189715624577	0.000469374401292
2.32	0.000223233793743	0.00015130866998	0.000374542463724
2.34	0.000177799713542	0.000120411527009	0.000298211240551
2.36	0.000141300113581	9.56128813337e-05	0.000236912994915
2.38	0.000112045648834	7.57546661109e-05	0.000187800314945
2.4	8.86521338207e-05	5.98890676789e-05	0.0001485412015
2.42	6.99883529193e-05	4.72423433687e-05	0.000117230696288
2.44	5.51322088953e-05	3.71844664372e-05	9.23166753325e-05
2.46	4.33339920642e-05	2.92037377038e-05	7.2537729768e-05
2.48	3.39857084478e-05	2.28856156389e-05	5.68713240866e-05
2.5	2.65955453929e-05	1.78951169893e-05	4.44906623822e-05
2.52	2.07666781709e-05	1.39622292558e-05	3.47289074267e-05
2.54	1.61797320434e-05	1.08698552361e-05	2.70495872795e-05
2.56	1.25783121895e-05	8.44387924236e-06	2.10221914318e-05
2.58	9.75709981963e-06	6.54500531874e-06	1.63021051384e-05
2.6	7.55208782148e-06	5.06207065058e-06	1.26141584721e-05
2.62	5.83259446981e-06	3.9065831655e-06	9.73917763531e-06
2.64	4.49475009295e-06	3.00827184042e-06	7.50302193337e-06
2.66	3.45620010298e-06	2.31147215915e-06	5.76767226212e-06
2.68	2.65180936964e-06	1.77219817647e-06	4.4240075461e-06
2.7	2.03018838906e-06	1.35577734676e-06	3.38596573582e-06
2.72	1.5508918372e-06	1.03494522077e-06	2.58583705796e-06
2.74	1.18216560165e-06	7.88314804901e-07	1.97048040655e-06
2.76	8.99139881041e-07	5.99150260463e-07	1.4982901415e-06
2.78	6.82383987934e-07	4.5438709319e-07	1.13677108112e-06
2.8	5.16753585131e-07	3.43851398228e-07	8.60604983359e-07
2.82	3.90473662304e-07	2.59639389329e-07	6.50113051633e-07
2.84	2.94411001295e-07	1.95625622487e-07	4.90036623783e-07
2.86	2.21498515899e-07	1.4707425581e-07	3.68572771709e-07
2.88	1.66280971765e-07	1.10332569614e-07	2.76613541379e-07
2.9	1.24557440532e-07	8.25899754512e-08	2.07147415983e-07
2.92	9.31006300038e-08	6.1689016537e-08	1.54789646541e-07
2.94	6.94371382511e-08	4.59775294347e-08	1.15414667686e-07
2.96	5.16758557484e-08	3.41933029677e-08	8.58691587161e-08
2.98	3.83743138707e-08	2.53743236565e-08	6.37486375272e-08
3.0	2.84348576542e-08	1.87891116461e-08	4.72239693003e-08
3.02	2.10241952987e-08	1.38827888596e-08	3.49069841582e-08
3.04	1.55112210681e-08	1.02354333199e-08	2.57466543881e-08
3.06	1.14190838325e-08	7.53000266449e-09	1.89490864969e-08
3.08	8.38833147973e-09	5.52769079715e-09	1.39160222769e-08
3.1	6.1486437381e-09	4.04904308804e-09	1.01976868261e-08
3.12	4.4972068943e-09	2.95952098361e-09	7.45672787792e-09
3.14	3.28221147572e-09	2.15849544806e-09	5.44070692378e-09
3.16	2.39029092265e-09	1.57087581776e-09	3.96116674042e-09
3.18	1.73698403458e-09	1.14075895134e-09	2.87774298592e-09
3.2	1.25951138759e-09	8.26623098486e-10	2.08613448608e-09
3.22	9.11317935279e-10	5.97699799615e-10	1.50901773489e-09
3.24	6.57960192003e-10	4.3124185303e-10	1.08920204503e-09
3.26	4.74014395698e-10	3.10471121141e-10	7.8448551684e-10
3.28	3.40757936556e-10	2.23040802384e-10	5.6379873894e-10
3.3	2.44434939091e-10	1.59886028599e-10	4.0432096769e-10
3.32	1.74962008782e-10	1.14366829187e-10	2.89328837969e-10
3.34	1.24964802833e-10	8.16306569835e-11	2.06595459816e-10
3.36	8.90626153278e-11	5.81393835473e-11	1.47201998875e-10
3.38	6.33384255627e-11	4.13191846007e-11	1.04657610163e-10
3.4	4.49472848972e-11	2.93020170869e-11	7.42493019841e-11
3.42	3.18276323086e-11	2.07351895162e-11	5.25628218249e-11
3.44	2.24890007441e-11	1.46414293604e-11	3.71304301046e-11
3.46	1.58562770307e-11	1.03163050236e-11	2.61725820543e-11
3.48	1.11557252237e-11	7.25321171772e-12	1.84089369414e-11
3.5	7.83177467241e-12	5.08864629279e-12	1.29204209652e-11
3.52	5.48641456428e-12	3.56237922279e-12	9.04879378707e-12
3.54	3.83515909622e-12	2.48853784469e-12	6.32369694091e-12
3.56	2.67512905419e-12	1.73466175773e-12	4.40979081192e-12
3.58	1.86197111355e-12	1.20656867864e-12	3.06853979219e-12
3.6	1.2932075808e-12	8.37444839285e-13	2.13065242009e-12
3.62	8.96253566571e-13	5.79999371048e-13	1.47625293762e-12
3.64	6.19813671573e-13	4.00835528459e-13	1.02064920003e-12
3.66	4.27719695427e-13	2.76421927617e-13	7.04141623045e-13
3.68	2.94527213833e-13	1.90215800575e-13	4.84743014408e-13
3.7	2.02376429057e-13	1.30613696306e-13	3.32990125363e-13
3.72	1.38759581146e-13	8.94950667413e-14	2.28254647887e-13
3.74	9.4936849192e-14	6.1189644364e-14	1.56126493556e-13
3.76	6.48150195679e-14	4.17470148462e-14	1.06562034414e-13
3.78	4.41555939347e-14	2.84211595919e-14	7.25767535266e-14
3.8	3.00168598312e-14	1.93075528549e-14	4.93244126861e-14
3.82	2.03617196121e-14	1.30882608975e-14	3.34499805097e-14
3.84	1.37826755091e-14	8.85331922404e-15	2.26359947332e-14
3.86	9.30942172152e-15	5.97585385804e-15	1.52852755796e-14
3.88	6.2745441559e-15	4.02497945903e-15	1.02995236149e-14
3.9	4.21999720172e-15	2.70518776329e-15	6.925184965e-15
3.92	2.83212785955e-15	1.81426780141e-15	4.64639566096e-15
3.94	1.8966380504e-15	1.21415963183e-15	3.11079768223e-15
3.96	1.26743929855e-15	8.1081315425e-16	2.0782524528e-15
3.98	8.45164369131e-16	5.40301984173e-16	1.3854663533e-15
4.0	5.6237587633e-16	3.59271938158e-16	9.21647814488e-16
4.02	3.73408214797e-16	2.38386229586e-16	6.11794444383e-16
4.04	2.47407534416e-16	1.57837552981e-16	4.05245087397e-16
4.06	1.63573906909e-16	1.04282393743e-16	2.67856300653e-16
4.08	1.07916379351e-16	6.87516761571e-17	1.76668055508e-16
4.1	7.10449345327e-17	4.52300849389e-17	1.16275019472e-16
4.12	4.66714678992e-17	2.96922763724e-17	7.63637442716e-17
4.14	3.05944441108e-17	1.94505428287e-17	5.00449869395e-17
4.16	2.00127425829e-17	1.27142942953e-17	3.27270368782e-17
4.18	1.30630250023e-17	8.29325947551e-18	2.13562844778e-17
4.2	8.50852307316e-18	5.3979749452e-18	1.39064980184e-17
4.22	5.5301644136e-18	3.5059784883e-18	9.0361429019e-18
4.24	3.58670376273e-18	2.27227324202e-18	5.85897700475e-18
4.26	2.32127576764e-18	1.46955192909e-18	3.79082769673e-18
4.28	1.49910443983e-18	9.48380345357e-19	2.44748478519e-18
4.3	9.66075622773e-19	6.10736006128e-19	1.5768116289e-18
4.32	6.2124741187e-19	3.92462370077e-19	1.01370978195e-18
4.34	3.9865062584e-19	2.51661152537e-19	6.50311778377e-19
4.36	2.55267102113e-19	1.61030500868e-19	4.16297602982e-19
4.38	1.63106750492e-19	1.02819159694e-19	2.65925910186e-19
4.4	1.0399773001e-19	6.55109714012e-20	1.69508701412e-19
4.42	6.61684203732e-20	4.16512699731e-20	1.07819690346e-19
4.44	4.20100114959e-20	2.64251104652e-20	6.84351219611e-20
4.46	2.66152225696e-20	1.67293806855e-20	4.33446032551e-20
4.48	1.68260747134e-20	1.05686018542e-20	2.73946765676e-20
4.5	1.06147817968e-20	6.66238862881e-21	1.72771704256e-20
4.52	6.68213142547e-21	4.19099620916e-21	1.08731276346e-20
4.54	4.19753933603e-21	2.63075001838e-21	6.82828935441e-21
4.56	2.63117957436e-21	1.64784755013e-21	4.27902712449e-21
4.58	1.64581982082e-21	1.02998224498e-21	2.6758020658e-21
4.6	1.02728347623e-21	6.42418188291e-22	1.66970166452e-21
4.62	6.39844823461e-22	3.99835565691e-22	1.03968038915e-21
4.64	3.97681593113e-22	2.48325112472e-22	6.46006705585e-22
4.66	2.46645340748e-22	1.53898930865e-22	4.00544271613e-22
4.68	1.52646574431e-22	9.51757758656e-23	2.47822350296e-22
4.7	9.42709867839e-23	5.87344932693e-23	1.53005480053e-22
4.72	5.80959701441e-23	3.61689681372e-23	9.42649382813e-23
4.74	3.57265474141e-23	2.22256882144e-23	5.79522356285e-23
4.76	2.19236717695e-23	1.36285808463e-23	3.55522526157e-23
4.78	1.34249554928e-23	8.33916335714e-24	2.17641188499e-23
4.8	8.20332378573e-24	5.09179449633e-24	1.32951182821e-23
4.82	5.00200823692e-24	3.10238649504e-24	8.10439473196e-24
4.84	3.04352318638e-24	1.88624321474e-24	4.92976640112e-24
4.86	1.84793461897e-24	1.14439602719e-24	2.99233064615e-24
4.88	1.11962986317e-24	6.92838414342e-25	1.81246827751e-24
4.9	6.76924666951e-25	4.18566674117e-25	1.09549134107e-24
4.92	4.08398660046e-25	2.52333265919e-25	6.60731925964e-25
4.94	2.45870534808e-25	1.51796460538e-25	3.97666995346e-25
4.96	1.47709006676e-25	9.11226113369e-26	2.38831618013e-25
4.98	8.85494540334e-26	5.45843500813e-26	1.43133804115e-25
5.0	5.29716279021e-26	3.26277933852e-26	8.55994212873e-26
#normalisation = 9.0
