# mass number (A) = 40
# number of protons (Z) = 20
#units k = 1/fm , units n_1(k) = fm^3# k (1/fm)	n	p	tot
0.0	82.2840973898	82.4542452527	164.738342642
0.02	82.1605688375	82.3302910184	164.490859856
0.04	81.7928712862	81.9613303526	163.754201639
0.06	81.1895725321	81.3559722479	162.54554478
0.08	80.3646341976	80.5282450192	160.892879217
0.1	79.3369474531	79.4971291715	158.834076625
0.12	78.1297080191	78.2859285927	156.415636612
0.14	76.7696541447	76.9215039473	153.691158092
0.16	75.2861962499	75.4333971679	150.719593418
0.18	73.7104706951	73.852879744	147.563350439
0.2	72.0743525521	72.2119599306	144.286312483
0.22	70.4094632213	70.5423849701	140.951848191
0.24	68.7462082485	68.8746739156	137.620882164
0.26	67.1128787922	67.2372147226	134.350093515
0.28	65.5348469979	65.6554560443	131.190303042
0.3	64.0338812112	64.1512198047	128.185101016
0.32	62.627601727	62.7421553389	125.369757066
0.34	61.3290918705	61.4413499422	122.770441813
0.36	60.1466729194	60.2571043308	120.40377725
0.38	59.0838449669	59.1928750622	118.276720029
0.4	58.1393895883	58.2473796756	116.386769264
0.42	57.3076243392	57.41485445	114.722478789
0.44	56.578793932	56.6854494566	113.264243389
0.46	55.9395785777	56.0457412068	111.985319784
0.48	55.3736965914	55.4793397972	110.853036389
0.5	54.8625760387	54.9675651263	109.830141165
0.52	54.3860689734	54.4901655418	108.876234515
0.54	53.9231816894	54.0260521654	107.949233855
0.56	53.4527953101	53.5540230639	107.006818374
0.58	52.9543528807	53.0534533085	106.007806189
0.6	52.4084917635	52.5049296314	104.913421395
0.62	51.7976034204	51.8908117074	103.688415128
0.64	51.1063064106	51.1957058681	102.302012279
0.66	50.3218224552	50.4068411152	100.72866357
0.68	49.4342495447	49.5143414537	98.9485909984
0.7	48.4367301097	48.5113926368	96.9481227465
0.72	47.3255160885	47.3943052529	94.7198213415
0.74	46.0999361722	46.1624795446	92.2624157168
0.76	44.7622734777	44.8182803326	89.5805538103
0.78	43.3175643216	43.366832843	86.6843971646
0.8	41.7733305856	41.8157520517	83.5890826373
0.82	40.1392593654	40.1748193566	80.314078722
0.84	38.4268441892	38.4556209693	76.8824651585
0.86	36.6490021082	36.6711624198	73.320164528
0.88	34.8196804608	34.8354730519	69.6551535127
0.9	32.9534661615	32.9632134122	65.9166795737
0.92	31.0652090465	31.0692971058	62.1345061523
0.94	29.169669216	29.1685370702	58.3382062862
0.96	27.281196527	27.2753244255	54.5565209525
0.98	25.4134485128	25.4033461575	50.8167946702
1.0	23.5791511076	23.5653459818	47.1444970894
1.02	21.7899047139	21.7729308875	43.5628356014
1.04	20.0560364337	20.0364241295	40.0924605633
1.06	18.3864977353	18.3647638882	36.7512616235
1.08	16.7888054872	16.7654454712	33.5542509584
1.1	15.2690231846	15.2445038249	30.5135270094
1.12	13.8317783301	13.8065322625	27.6383105926
1.14	12.4803113115	12.4547327025	24.935044014
1.16	11.2165507386	11.1909923341	22.4075430728
1.18	10.0412100375	10.0159814692	20.0571915067
1.2	8.95390013088	8.92926737947	17.8831675103
1.22	7.95325323329	7.92943912423	15.8826923575
1.24	7.03705312398	7.01423871519	14.0512918392
1.26	6.20236770102	6.18069441321	12.3830621142
1.28	5.44568013484	5.42525247224	10.8709326071
1.3	4.76301549827	4.74390421074	9.50691970901
1.32	4.1500603285	4.13230587325	8.28236620176
1.34	3.60227314911	3.58588932151	7.18816247062
1.36	3.11498452933	3.09996214619	6.21494667552
1.38	2.68348576714	2.66979630152	5.35328206866
1.4	2.30310574095	2.29070482414	4.59381056509
1.42	1.96927587473	1.9581065978	3.92738247254
1.44	1.67758349807	1.66757946176	3.34516295982
1.46	1.42381415583	1.41490223297	2.8387163888
1.48	1.20398363282	1.19608642137	2.40007005419
1.5	1.01436061009	1.00739856735	2.02175917744
1.52	0.851480967718	0.845374226863	1.69685519458
1.54	0.712154798658	0.706824677407	1.41897947606
1.56	0.593467207607	0.588837425846	1.18230463345
1.58	0.492773944201	0.488771572453	0.981545516654
1.6	0.407692868404	0.404249032612	0.811941901016
1.62	0.336092174422	0.3331425446	0.669234719022
1.64	0.276076213861	0.273561305031	0.549637518893
1.66	0.225969664731	0.223834978372	0.449804643103
1.68	0.184300694895	0.182496728113	0.366797423008
1.7	0.149783670676	0.148265818641	0.298049489318
1.72	0.121301866631	0.120030241735	0.241332108366
1.74	0.0978905434716	0.0968297322154	0.194720275687
1.76	0.0787206793613	0.0778394554598	0.156560134821
1.78	0.0630835665515	0.0623545761139	0.125438142665
1.8	0.0503764210429	0.0497758531677	0.100152274211
1.82	0.0400890978609	0.0395963515649	0.0796854494259
1.84	0.0317919583845	0.0313893145633	0.0631812729477
1.86	0.0251248985095	0.0247972036185	0.049922102128
1.88	0.0197875166007	0.0195218829729	0.0393093995736
1.9	0.0155303773949	0.0153159035852	0.0308462809801
1.92	0.01214731143	0.0119748246852	0.0241221361152
1.94	0.00946867830279	0.00933050019568	0.0187991784985
1.96	0.00735551525805	0.00724525067497	0.014600765933
1.98	0.00569448947177	0.00560683848035	0.0113013279521
2.0	0.00439357216343	0.00432416379631	0.00871773595974
2.02	0.00337835468981	0.00332360133043	0.00670195602024
2.04	0.00258893044741	0.0025459012768	0.00513483172421
2.06	0.00197727124053	0.00194358307597	0.0039208543165
2.08	0.00150503233657	0.00147875614488	0.00298378848145
2.1	0.00114172638772	0.00112130776897	0.00226303415668
2.12	0.000863212475488	0.000847404472876	0.00171061694836
2.14	0.000650452525032	0.000638259208317	0.00128871173335
2.16	0.000488493083645	0.000479122467571	0.000967615551216
2.18	0.000365635857065	0.000358460842197	0.000724096699262
2.2	0.000272765377866	0.000267291532732	0.000540056910598
2.22	0.000202806705379	0.00019864584	0.000401452545379
2.24	0.000150290112529	0.000147138720295	0.000297428832824
2.26	0.000111003306935	0.000108625071498	0.000219628378433
2.28	8.17148801443e-05	7.99265546801e-05	0.000161641434824
2.3	5.99554077813e-05	5.86154746086e-05	0.00011857088239
2.32	4.38449683261e-05	4.28445769864e-05	8.66895453125e-05
2.34	3.195784586e-05	3.12136074648e-05	6.31714533248e-05
2.36	2.32168701187e-05	2.26651554051e-05	4.58820255238e-05
2.38	1.68112626193e-05	1.64037113744e-05	3.32149739937e-05
2.4	1.21330358583e-05	1.18330369308e-05	2.39660727891e-05
2.42	8.72796651683e-06	8.50791138227e-06	1.72358778991e-05
2.44	6.25796330354e-06	6.09711295799e-06	1.23550762615e-05
2.46	4.47230246134e-06	4.35513813479e-06	8.82744059613e-06
2.48	3.18573287863e-06	3.10068650409e-06	6.28641938272e-06
2.5	2.26187897245e-06	2.20036026879e-06	4.46223924124e-06
2.52	1.60071097433e-06	1.55636508625e-06	3.15707606058e-06
2.54	1.12912425052e-06	1.09726774922e-06	2.22639199974e-06
2.56	7.93884754678e-07	7.71078973458e-07	1.56496372814e-06
2.58	5.56367467982e-07	5.40097095389e-07	1.09646456337e-06
2.6	3.8864771672e-07	3.77079694335e-07	7.65727411055e-07
2.62	2.7060897306e-07	2.62412384584e-07	5.33021357644e-07
2.64	1.87811190085e-07	1.82023267034e-07	3.69834457119e-07
2.66	1.29925806379e-07	1.25852649849e-07	2.55778456229e-07
2.68	8.95912334475e-08	8.67345558635e-08	1.76325789311e-07
2.7	6.15790765204e-08	5.95823614938e-08	1.21161438014e-07
2.72	4.21890533449e-08	4.07981448626e-08	8.29871982075e-08
2.74	2.8811555448e-08	2.78459239243e-08	5.66574793723e-08
2.76	1.96126048779e-08	1.89444802959e-08	3.85570851738e-08
2.78	1.33078166241e-08	1.28470942994e-08	2.61549109235e-08
2.8	9.00083022988e-09	8.68419485085e-09	1.76850250807e-08
2.82	6.06825494289e-09	5.85137443809e-09	1.1919629381e-08
2.84	4.07804278792e-09	3.92998715286e-09	8.00802994078e-09
2.86	2.73179213978e-09	2.63105836469e-09	5.36285050446e-09
2.88	1.82411667627e-09	1.75580839568e-09	3.57992507194e-09
2.9	1.21413734922e-09	1.16797138097e-09	2.38210873019e-09
2.92	8.05553514723e-10	7.74456183878e-10	1.5800096986e-09
2.94	5.32762262265e-10	5.11884737068e-10	1.04464699933e-09
2.96	3.51225530297e-10	3.37255679441e-10	6.88481209737e-10
2.98	2.30809312944e-10	2.21492584505e-10	4.52301897449e-10
3.0	1.51194589906e-10	1.45001661864e-10	2.9619625177e-10
3.02	9.872698378e-11	9.46240781513e-11	1.93351061931e-10
3.04	6.42618440798e-11	6.15525768651e-11	1.25814420945e-10
3.06	4.16954994112e-11	3.99123864651e-11	8.16078858764e-11
3.08	2.69677567138e-11	2.57980569608e-11	5.27658136746e-11
3.1	1.73868559185e-11	1.6622069317e-11	3.40089252354e-11
3.12	1.11742609558e-11	1.06758607362e-11	2.1850121692e-11
3.14	7.15877965206e-12	6.83504441273e-12	1.39938240648e-11
3.16	4.57175034308e-12	4.36215713694e-12	8.93390748002e-12
3.18	2.91038350427e-12	2.77513217524e-12	5.68551567951e-12
3.2	1.84689837117e-12	1.75990531226e-12	3.60680368343e-12
3.22	1.16831966236e-12	1.11254872365e-12	2.28086838601e-12
3.24	7.36727892495e-13	7.0108990789e-13	1.43781780038e-12
3.26	4.6310566486e-13	4.40406930014e-13	9.03512594875e-13
3.28	2.90189322556e-13	2.75778957745e-13	5.659682803e-13
3.3	1.81264143739e-13	1.72145409672e-13	3.53409553411e-13
3.32	1.12868379776e-13	1.07116870961e-13	2.19985250737e-13
3.34	7.00589053888e-14	6.64429915124e-14	1.36501896901e-13
3.36	4.33496722958e-14	4.10837512591e-14	8.44334235549e-14
3.38	2.67387090733e-14	2.53233611917e-14	5.20620702649e-14
3.4	1.64409882166e-14	1.55597878607e-14	3.20007760774e-14
3.42	1.00774110011e-14	9.53054560675e-15	1.96079566079e-14
3.44	6.15749814931e-15	5.81921389369e-15	1.1976712043e-14
3.46	3.75054651616e-15	3.54196303043e-15	7.29250954659e-15
3.48	2.27730101919e-15	2.14910455357e-15	4.42640557276e-15
3.5	1.37842328939e-15	1.29988682275e-15	2.67831011214e-15
3.52	8.31728703054e-16	7.83770047689e-16	1.61549875074e-15
3.54	5.00285987578e-16	4.71093970357e-16	9.71379957935e-16
3.56	2.99980605759e-16	2.82268760966e-16	5.82249366725e-16
3.58	1.79310954264e-16	1.68599038092e-16	3.47909992355e-16
3.6	1.06846395827e-16	1.00388734242e-16	2.07235130069e-16
3.62	6.34677261739e-17	5.95872126528e-17	1.23054938827e-16
3.64	3.75825803855e-17	3.52581852592e-17	7.28407656447e-17
3.66	2.21851015402e-17	2.07972642182e-17	4.29823657584e-17
3.68	1.30550333009e-17	1.2229040967e-17	2.52840742679e-17
3.7	7.65837878327e-18	7.16834807403e-18	1.48267268573e-17
3.72	4.47856154181e-18	4.18877289581e-18	8.66733443761e-18
3.74	2.61086030589e-18	2.44003540944e-18	5.05089571533e-18
3.76	1.51730413713e-18	1.41692727247e-18	2.9342314096e-18
3.78	8.79034842015e-19	8.20241295683e-19	1.6992761377e-18
3.8	5.07673498608e-19	4.73346158412e-19	9.81019657019e-19
3.82	2.92286233213e-19	2.72307589709e-19	5.64593822921e-19
3.84	1.6775604965e-19	1.56165392704e-19	3.23921442354e-19
3.86	9.59830344467e-20	8.92800661123e-20	1.85263100559e-19
3.88	5.47466689411e-20	5.08826061032e-20	1.05629275044e-19
3.9	3.11292271983e-20	2.89087827547e-20	6.0038009953e-20
3.92	1.76452113168e-20	1.63733048696e-20	3.40185161864e-20
3.94	9.97088565416e-21	9.24462795969e-21	1.92155136139e-20
3.96	5.61680582816e-21	5.20342776478e-21	1.08202335929e-20
3.98	3.15423710962e-21	2.91969221927e-21	6.07392932889e-21
4.0	1.76583026655e-21	1.63317418897e-21	3.39900445552e-21
4.02	9.85493364527e-22	9.10701958665e-22	1.89619532319e-21
4.04	5.48288339646e-22	5.06254376164e-22	1.05454271581e-21
4.06	3.04099212392e-22	2.80550139776e-22	5.84649352168e-22
4.08	1.68140748762e-22	1.54989324027e-22	3.23130072789e-22
4.1	9.26792403553e-23	8.53577747842e-23	1.78037015139e-22
4.12	5.09265392946e-23	4.68635081008e-23	9.77900473953e-23
4.14	2.78970623798e-23	2.56494062166e-23	5.35464685964e-23
4.16	1.52344150897e-23	1.39949398782e-23	2.92293549679e-23
4.18	8.29366491901e-24	7.61230792002e-24	1.5905972839e-23
4.2	4.50112378377e-24	4.12775229888e-24	8.62887608266e-24
4.22	2.43528377472e-24	2.23132717801e-24	4.66661095272e-24
4.24	1.31350796981e-24	1.20244605039e-24	2.5159540202e-24
4.26	7.06269957613e-25	6.45982909884e-25	1.3522528675e-24
4.28	3.78585519566e-25	3.45963196185e-25	7.24548715751e-25
4.3	2.02307910416e-25	1.84710920449e-25	3.87018830865e-25
4.32	1.07774912994e-25	9.83126481748e-26	2.06087561169e-25
4.34	5.72372545467e-26	5.21651802845e-26	1.09402434831e-25
4.36	3.03037619058e-26	2.75935049208e-26	5.78972668265e-26
4.38	1.59945221728e-26	1.45508444105e-26	3.05453665833e-26
4.4	8.41595300271e-27	7.64935878166e-27	1.60653117844e-26
4.42	4.41461633851e-27	4.00883054297e-27	8.42344688148e-27
4.44	2.30855692181e-27	2.09443323948e-27	4.40299016129e-27
4.46	1.20350107755e-27	1.09086703807e-27	2.29436811562e-27
4.48	6.254764591e-28	5.66413903836e-28	1.19189036294e-27
4.5	3.24066660606e-28	2.93192658048e-28	6.17259318654e-28
4.52	1.67385157197e-28	1.51296778575e-28	3.18681935772e-28
4.54	8.61904290775e-29	7.78330373192e-29	1.64023466397e-28
4.56	4.42446686189e-29	3.99168517453e-29	8.41615203642e-29
4.58	2.26424256599e-29	2.04083024977e-29	4.30507281576e-29
4.6	1.15516851826e-29	1.0401981437e-29	2.19536666196e-29
4.62	5.87527792599e-30	5.28547645074e-30	1.11607543767e-29
4.64	2.97901332604e-30	2.67738834841e-30	5.65640167445e-30
4.66	1.50583613795e-30	1.35206644354e-30	2.85790258149e-30
4.68	7.58830012593e-31	6.8068223097e-31	1.43951224356e-30
4.7	3.81217711716e-31	3.4162589233e-31	7.22843604045e-31
4.72	1.90925394362e-31	1.70929648461e-31	3.61855042823e-31
4.74	9.53271574945e-32	8.52598452408e-32	1.80587002735e-31
4.76	4.74495581738e-32	4.23967398947e-32	8.98462980685e-32
4.78	2.35456423984e-32	2.10175179152e-32	4.45631603136e-32
4.8	1.16480174253e-32	1.03870371793e-32	2.20350546046e-32
4.82	5.74456077695e-33	5.11756649724e-33	1.08621272742e-32
4.84	2.82439376296e-33	2.51360540007e-33	5.33799916303e-33
4.86	1.38438697092e-33	1.23081491579e-33	2.61520188671e-33
4.88	6.76478269332e-34	6.0082872475e-34	1.27730699408e-33
4.9	3.29544846635e-34	2.92395814251e-34	6.21940660885e-34
4.92	1.6004413503e-34	1.41858178516e-34	3.01902313546e-34
4.94	7.74871703176e-35	6.86120831736e-35	1.46099253491e-34
4.96	3.74011425879e-35	3.30833943372e-35	7.04845369251e-35
4.98	1.79972105393e-35	1.59031434415e-35	3.39003539808e-35
5.0	8.63358182827e-36	7.62113360489e-36	1.62547154332e-35
#normalisation = 40.0
