# mass number (A) = 19
# number of protons (Z) = 8
# number of neutrons (N) = 11
# k (1/fm)	n_1(k) (fm^3)
0.0	2.60041209264
0.02	2.60363737542
0.04	2.6132508062
0.06	2.62906626298
0.08	2.65077728798
0.1	2.67796262327
0.12	2.71009379781
0.14	2.74654460762
0.16	2.78660229205
0.18	2.82948017579
0.2	2.87433151729
0.22	2.92026428246
0.24	2.96635654662
0.26	3.01167221916
0.28	3.05527678338
0.3	3.09625274951
0.32	3.13371453051
0.34	3.16682246867
0.36	3.1947957648
0.38	3.21692409077
0.4	3.23257769919
0.42	3.24121588039
0.44	3.24239365558
0.46	3.23576663494
0.48	3.22109400973
0.5	3.198239687
0.52	3.16717161351
0.54	3.12795937078
0.56	3.08077015559
0.58	3.02586328834
0.6	2.96358341561
0.62	2.89435259247
0.64	2.81866144378
0.66	2.73705961288
0.68	2.6501457096
0.7	2.55855696845
0.72	2.46295882182
0.74	2.3640345832
0.76	2.26247542133
0.78	2.15897078925
0.8	2.05419945272
0.82	1.94882124064
0.84	1.84346961758
0.86	1.73874515484
0.88	1.63520995295
0.9	1.53338304566
0.92	1.43373679352
0.94	1.33669425466
0.96	1.24262750215
0.98	1.15185684067
1.0	1.0646508616
1.02	0.981227264216
1.04	0.901754361735
1.06	0.826353185087
1.08	0.755100093242
1.1	0.688029797813
1.12	0.625138710348
1.14	0.566388523455
1.16	0.511709941329
1.18	0.461006481007
1.2	0.414158272571
1.22	0.371025794253
1.24	0.331453486642
1.26	0.295273198741
1.28	0.262307427253
1.3	0.232372318886
1.32	0.205280413589
1.34	0.18084311423
1.36	0.158872875207
1.38	0.139185108765
1.4	0.121599813301
1.42	0.105942932654
1.44	0.0920474592694
1.46	0.0797542972347
1.48	0.0689129035492
1.5	0.0593817275972
1.52	0.0510284698029
1.54	0.0437301808346
1.56	0.0373732226214
1.58	0.0318531119084
1.6	0.0270742661785
1.62	0.022949670595
1.64	0.0194004832308
1.66	0.0163555943149
1.68	0.013751153609
1.7	0.0115300783632
1.72	0.00964155265769
1.74	0.00804052732641
1.76	0.00668722813224
1.78	0.00554667843083
1.8	0.00458824124126
1.82	0.00378518444922
1.84	0.00311427180599
1.86	0.00255538145596
1.88	0.00209115292543
1.9	0.00170666282989
1.92	0.00138912899927
1.94	0.00112764227186
1.96	0.000912924856919
1.98	0.000737113904418
2.0	0.000593568734963
2.02	0.000476700065176
2.04	0.000381819501816
2.06	0.000305007562896
2.08	0.000242998506748
2.1	0.000193080302444
2.12	0.000153008149894
2.14	0.000120930049236
2.16	9.53230211551e-05
2.18	7.49386882549e-05
2.2	5.87570385877e-05
2.22	4.59473030811e-05
2.24	3.58349864238e-05
2.26	2.78741942577e-05
2.28	2.16244969743e-05
2.3	1.67316611761e-05
2.32	1.29116634278e-05
2.34	9.93747708688e-06
2.36	7.62819176498e-06
2.38	5.84008653008e-06
2.4	4.45933263253e-06
2.42	3.39604973434e-06
2.44	2.57948181718e-06
2.46	1.95409564164e-06
2.48	1.47643634741e-06
2.5	1.11260203283e-06
2.52	8.36222428086e-07
2.54	6.26846549297e-07
2.56	4.68660928677e-07
2.58	3.49474060967e-07
2.6	2.59914454335e-07
2.62	1.92799452527e-07
2.64	1.4264009603e-07
2.66	1.05253970142e-07
2.68	7.74634714237e-08
2.7	5.68614055334e-08
2.72	4.16294760779e-08
2.74	3.03981788013e-08
2.76	2.21389994669e-08
2.78	1.60817294428e-08
2.8	1.16512460891e-08
2.82	8.4193270546e-09
2.84	6.06803782079e-09
2.86	4.36199915517e-09
2.88	3.12744567346e-09
2.9	2.23646117927e-09
2.92	1.59514744846e-09
2.94	1.13477213821e-09
2.96	8.051658215e-10
2.98	5.69811623979e-10
3.0	4.02204613357e-10
3.02	2.83160727389e-10
3.04	1.98833552455e-10
3.06	1.39257133995e-10
3.08	9.72784862942e-11
3.1	6.77779083689e-11
3.12	4.71011986104e-11
3.14	3.2647401514e-11
3.16	2.25703642494e-11
3.18	1.55633189517e-11
3.2	1.07038491939e-11
3.22	7.34264051042e-12
3.24	5.02388249185e-12
3.26	3.42848298943e-12
3.28	2.33367426786e-12
3.3	1.58436257876e-12
3.32	1.07286579329e-12
3.34	7.24624617451e-13
3.36	4.88155298156e-13
3.38	3.28005056375e-13
3.4	2.19827005805e-13
3.42	1.46946716773e-13
3.44	9.79754855012e-14
3.46	6.51559392834e-14
3.48	4.32185303037e-14
3.5	2.85933949317e-14
3.52	1.88686808184e-14
3.54	1.2419318878e-14
3.56	8.15332544158e-15
3.58	5.33891328631e-15
3.6	3.48700342472e-15
3.62	2.27160921232e-15
3.64	1.47603592921e-15
3.66	9.56626954582e-16
3.68	6.18402145888e-16
3.7	3.98733166109e-16
3.72	2.56434845987e-16
3.74	1.6449599384e-16
3.76	1.05248888623e-16
3.78	6.71682316612e-17
3.8	4.27557773633e-17
3.82	2.71462900347e-17
3.84	1.71913995896e-17
3.86	1.08591877237e-17
3.88	6.84177964937e-18
3.9	4.29958697432e-18
3.92	2.69507330357e-18
3.94	1.68500380218e-18
3.96	1.05079480341e-18
3.98	6.53614896145e-19
4.0	4.05520882339e-19
4.02	2.50952786226e-19
4.04	1.5490255986e-19
4.06	9.537031053e-20
4.08	5.85674181913e-20
4.1	3.58746351351e-20
4.12	2.19183411842e-20
4.14	1.33572450739e-20
4.16	8.11923980208e-21
4.18	4.9226997148e-21
4.2	2.97701524858e-21
4.22	1.7957618725e-21
4.24	1.08045488674e-21
4.26	6.48417852541e-22
4.28	3.88144958634e-22
4.3	2.31752176457e-22
4.32	1.38020882806e-22
4.34	8.19892867339e-23
4.36	4.85803860231e-23
4.38	2.87115458563e-23
4.4	1.69256035959e-23
4.42	9.95231104534e-24
4.44	5.83708626369e-24
4.46	3.41476549768e-24
4.48	1.99259237983e-24
4.5	1.15976248313e-24
4.52	6.73306578074e-25
4.54	3.89897157587e-25
4.56	2.25206482624e-25
4.58	1.29749444727e-25
4.6	7.45631287164e-26
4.62	4.27402367932e-26
4.64	2.4436786809e-26
4.66	1.39362471108e-26
4.68	7.9276108759e-27
4.7	4.49814802173e-27
4.72	2.54577650605e-27
4.74	1.43715000025e-27
4.76	8.09243828995e-28
4.78	4.54519313343e-28
4.8	2.54636766627e-28
4.82	1.42293766999e-28
4.84	7.9313444423e-29
4.86	4.40964962168e-29
4.88	2.44544478608e-29
4.9	1.35272125282e-29
4.92	7.46372454763e-30
4.94	4.10771112905e-30
4.96	2.25497301792e-30
4.98	1.23475310975e-30
5.0	6.7439818125e-31
#normalisation = 1.0
