# Mass = 0.0473905 Mev*(hbarc)^2/2 
# R = 4.82059 fm 
# a = 0.662 fm 
# V0 = 50.276 MeV 
# RSO = 4.43035 fm 
# aSO = 0.662 fm 
# VSO = 28.6062 MeV fm^2
# l = 1 
# two_j = 1 
# two_t = -1 
# Energy = -29.9686 MeV
# r 	 V_eff [2m/hbar/hbar]
0.1 	4170.64
0.10238 	3976.69
0.10476 	3795.81
0.10714 	3626.86
0.10952 	3468.79
0.1119 	3320.71
0.11428 	3181.77
0.11666 	3051.26
0.11904 	2928.49
0.12142 	2812.88
0.1238 	2703.86
0.12618 	2600.96
0.12856 	2503.72
0.13094 	2411.73
0.13332 	2324.62
0.1357 	2242.06
0.13808 	2163.73
0.14046 	2089.35
0.14284 	2018.65
0.14522 	1951.4
0.1476 	1887.38
0.14998 	1826.38
0.15236 	1768.22
0.15474 	1712.72
0.15712 	1659.72
0.1595 	1609.08
0.16188 	1560.66
0.16426 	1514.32
0.16664 	1469.96
0.16902 	1427.45
0.1714 	1386.71
0.17378 	1347.63
0.17616 	1310.12
0.17854 	1274.1
0.18092 	1239.49
0.1833 	1206.22
0.18568 	1174.23
0.18806 	1143.44
0.19044 	1113.79
0.19282 	1085.24
0.1952 	1057.73
0.19758 	1031.2
0.19996 	1005.62
0.20234 	980.931
0.20472 	957.1
0.2071 	934.086
0.20948 	911.852
0.21186 	890.363
0.21424 	869.586
0.21662 	849.49
0.219 	830.046
0.22138 	811.225
0.22376 	793.002
0.22614 	775.351
0.22852 	758.249
0.2309 	741.673
0.23328 	725.602
0.23566 	710.015
0.23804 	694.893
0.24042 	680.218
0.2428 	665.973
0.24518 	652.14
0.24756 	638.704
0.24994 	625.651
0.25232 	612.965
0.2547 	600.633
0.25708 	588.641
0.25946 	576.979
0.26184 	565.633
0.26422 	554.592
0.2666 	543.845
0.26898 	533.383
0.27136 	523.194
0.27374 	513.27
0.27612 	503.602
0.2785 	494.18
0.28088 	484.997
0.28326 	476.045
0.28564 	467.315
0.28802 	458.801
0.2904 	450.495
0.29278 	442.391
0.29516 	434.482
0.29754 	426.762
0.29992 	419.226
0.3023 	411.866
0.30468 	404.678
0.30706 	397.657
0.30944 	390.798
0.31182 	384.094
0.3142 	377.543
0.31658 	371.138
0.31896 	364.877
0.32134 	358.754
0.32372 	352.766
0.3261 	346.908
0.32848 	341.177
0.33086 	335.57
0.33324 	330.082
0.33562 	324.71
0.338 	319.452
0.34038 	314.303
0.34276 	309.261
0.34514 	304.324
0.34752 	299.487
0.3499 	294.749
0.35228 	290.106
0.35466 	285.557
0.35704 	281.098
0.35942 	276.728
0.3618 	272.443
0.36418 	268.242
0.36656 	264.123
0.36894 	260.083
0.37132 	256.121
0.3737 	252.234
0.37608 	248.421
0.37846 	244.68
0.38084 	241.008
0.38322 	237.404
0.3856 	233.868
0.38798 	230.396
0.39036 	226.987
0.39274 	223.64
0.39512 	220.353
0.3975 	217.126
0.39988 	213.955
0.40226 	210.841
0.40464 	207.782
0.40702 	204.776
0.4094 	201.822
0.41178 	198.92
0.41416 	196.067
0.41654 	193.264
0.41892 	190.507
0.4213 	187.798
0.42368 	185.134
0.42606 	182.514
0.42844 	179.938
0.43082 	177.405
0.4332 	174.913
0.43558 	172.462
0.43796 	170.051
0.44034 	167.679
0.44272 	165.344
0.4451 	163.048
0.44748 	160.788
0.44986 	158.563
0.45224 	156.374
0.45462 	154.219
0.457 	152.098
0.45938 	150.009
0.46176 	147.953
0.46414 	145.928
0.46652 	143.934
0.4689 	141.971
0.47128 	140.037
0.47366 	138.132
0.47604 	136.256
0.47842 	134.407
0.4808 	132.586
0.48318 	130.792
0.48556 	129.024
0.48794 	127.282
0.49032 	125.566
0.4927 	123.874
0.49508 	122.206
0.49746 	120.563
0.49984 	118.943
0.50222 	117.345
0.5046 	115.771
0.50698 	114.218
0.50936 	112.687
0.51174 	111.178
0.51412 	109.689
0.5165 	108.221
0.51888 	106.774
0.52126 	105.345
0.52364 	103.937
0.52602 	102.547
0.5284 	101.176
0.53078 	99.824
0.53316 	98.4897
0.53554 	97.1731
0.53792 	95.874
0.5403 	94.592
0.54268 	93.3268
0.54506 	92.0782
0.54744 	90.8459
0.54982 	89.6295
0.5522 	88.4288
0.55458 	87.2436
0.55696 	86.0735
0.55934 	84.9183
0.56172 	83.7778
0.5641 	82.6517
0.56648 	81.5398
0.56886 	80.4418
0.57124 	79.3575
0.57362 	78.2867
0.576 	77.2291
0.57838 	76.1846
0.58076 	75.1529
0.58314 	74.1338
0.58552 	73.1271
0.5879 	72.1326
0.59028 	71.1502
0.59266 	70.1795
0.59504 	69.2205
0.59742 	68.2729
0.5998 	67.3366
0.60218 	66.4114
0.60456 	65.4971
0.60694 	64.5936
0.60932 	63.7006
0.6117 	62.818
0.61408 	61.9457
0.61646 	61.0834
0.61884 	60.2311
0.62122 	59.3886
0.6236 	58.5557
0.62598 	57.7323
0.62836 	56.9183
0.63074 	56.1135
0.63312 	55.3177
0.6355 	54.5308
0.63788 	53.7528
0.64026 	52.9834
0.64264 	52.2226
0.64502 	51.4702
0.6474 	50.726
0.64978 	49.9901
0.65216 	49.2622
0.65454 	48.5422
0.65692 	47.83
0.6593 	47.1256
0.66168 	46.4287
0.66406 	45.7393
0.66644 	45.0573
0.66882 	44.3826
0.6712 	43.7151
0.67358 	43.0546
0.67596 	42.4011
0.67834 	41.7545
0.68072 	41.1146
0.6831 	40.4815
0.68548 	39.8549
0.68786 	39.2348
0.69024 	38.6212
0.69262 	38.0138
0.695 	37.4127
0.69738 	36.8178
0.69976 	36.2289
0.70214 	35.646
0.70452 	35.069
0.7069 	34.4978
0.70928 	33.9324
0.71166 	33.3727
0.71404 	32.8185
0.71642 	32.2699
0.7188 	31.7267
0.72118 	31.1889
0.72356 	30.6564
0.72594 	30.1291
0.72832 	29.607
0.7307 	29.09
0.73308 	28.5781
0.73546 	28.0711
0.73784 	27.569
0.74022 	27.0718
0.7426 	26.5793
0.74498 	26.0916
0.74736 	25.6085
0.74974 	25.13
0.75212 	24.6561
0.7545 	24.1867
0.75688 	23.7216
0.75926 	23.261
0.76164 	22.8047
0.76402 	22.3526
0.7664 	21.9048
0.76878 	21.4611
0.77116 	21.0215
0.77354 	20.586
0.77592 	20.1545
0.7783 	19.727
0.78068 	19.3033
0.78306 	18.8836
0.78544 	18.4676
0.78782 	18.0554
0.7902 	17.647
0.79258 	17.2422
0.79496 	16.8411
0.79734 	16.4436
0.79972 	16.0496
0.8021 	15.6591
0.80448 	15.2721
0.80686 	14.8885
0.80924 	14.5083
0.81162 	14.1315
0.814 	13.758
0.81638 	13.3877
0.81876 	13.0207
0.82114 	12.6569
0.82352 	12.2962
0.8259 	11.9386
0.82828 	11.5842
0.83066 	11.2328
0.83304 	10.8844
0.83542 	10.539
0.8378 	10.1965
0.84018 	9.85693
0.84256 	9.52026
0.84494 	9.18644
0.84732 	8.85544
0.8497 	8.52722
0.85208 	8.20176
0.85446 	7.87902
0.85684 	7.55898
0.85922 	7.2416
0.8616 	6.92686
0.86398 	6.61472
0.86636 	6.30516
0.86874 	5.99815
0.87112 	5.69366
0.8735 	5.39167
0.87588 	5.09214
0.87826 	4.79506
0.88064 	4.50038
0.88302 	4.2081
0.8854 	3.91818
0.88778 	3.6306
0.89016 	3.34532
0.89254 	3.06234
0.89492 	2.78162
0.8973 	2.50314
0.89968 	2.22688
0.90206 	1.95281
0.90444 	1.6809
0.90682 	1.41115
0.9092 	1.14352
0.91158 	0.877994
0.91396 	0.614547
0.91634 	0.35316
0.91872 	0.0938099
0.9211 	-0.163523
0.92348 	-0.41886
0.92586 	-0.672221
0.92824 	-0.923626
0.93062 	-1.1731
0.933 	-1.42065
0.93538 	-1.66631
0.93776 	-1.91009
0.94014 	-2.15201
0.94252 	-2.39209
0.9449 	-2.63036
0.94728 	-2.86681
0.94966 	-3.10149
0.95204 	-3.33439
0.95442 	-3.56555
0.9568 	-3.79498
0.95918 	-4.02269
0.96156 	-4.2487
0.96394 	-4.47303
0.96632 	-4.6957
0.9687 	-4.91671
0.97108 	-5.1361
0.97346 	-5.35387
0.97584 	-5.57003
0.97822 	-5.78462
0.9806 	-5.99763
0.98298 	-6.20909
0.98536 	-6.419
0.98774 	-6.62739
0.99012 	-6.83428
0.9925 	-7.03966
0.99488 	-7.24357
0.99726 	-7.446
0.99964 	-7.64698
1.00202 	-7.84653
1.0044 	-8.04464
1.00678 	-8.24134
1.00916 	-8.43665
1.01154 	-8.63056
1.01392 	-8.82311
1.0163 	-9.01429
1.01868 	-9.20412
1.02106 	-9.39262
1.02344 	-9.57979
1.02582 	-9.76566
1.0282 	-9.95022
1.03058 	-10.1335
1.03296 	-10.3155
1.03534 	-10.4962
1.03772 	-10.6757
1.0401 	-10.854
1.04248 	-11.031
1.04486 	-11.2068
1.04724 	-11.3814
1.04962 	-11.5548
1.052 	-11.727
1.05438 	-11.898
1.05676 	-12.0679
1.05914 	-12.2366
1.06152 	-12.4042
1.0639 	-12.5706
1.06628 	-12.7359
1.06866 	-12.9001
1.07104 	-13.0632
1.07342 	-13.2252
1.0758 	-13.3862
1.07818 	-13.546
1.08056 	-13.7048
1.08294 	-13.8625
1.08532 	-14.0192
1.0877 	-14.1748
1.09008 	-14.3294
1.09246 	-14.483
1.09484 	-14.6356
1.09722 	-14.7872
1.0996 	-14.9378
1.10198 	-15.0874
1.10436 	-15.236
1.10674 	-15.3837
1.10912 	-15.5304
1.1115 	-15.6761
1.11388 	-15.8209
1.11626 	-15.9648
1.11864 	-16.1077
1.12102 	-16.2497
1.1234 	-16.3908
1.12578 	-16.531
1.12816 	-16.6703
1.13054 	-16.8087
1.13292 	-16.9463
1.1353 	-17.0829
1.13768 	-17.2187
1.14006 	-17.3536
1.14244 	-17.4877
1.14482 	-17.6209
1.1472 	-17.7533
1.14958 	-17.8849
1.15196 	-18.0156
1.15434 	-18.1455
1.15672 	-18.2746
1.1591 	-18.4029
1.16148 	-18.5304
1.16386 	-18.6571
1.16624 	-18.7831
1.16862 	-18.9082
1.171 	-19.0326
1.17338 	-19.1562
1.17576 	-19.279
1.17814 	-19.4011
1.18052 	-19.5224
1.1829 	-19.643
1.18528 	-19.7629
1.18766 	-19.882
1.19004 	-20.0004
1.19242 	-20.1181
1.1948 	-20.235
1.19718 	-20.3513
1.19956 	-20.4669
1.20194 	-20.5817
1.20432 	-20.6959
1.2067 	-20.8094
1.20908 	-20.9222
1.21146 	-21.0343
1.21384 	-21.1457
1.21622 	-21.2565
1.2186 	-21.3667
1.22098 	-21.4761
1.22336 	-21.5849
1.22574 	-21.6931
1.22812 	-21.8007
1.2305 	-21.9076
1.23288 	-22.0138
1.23526 	-22.1195
1.23764 	-22.2245
1.24002 	-22.3289
1.2424 	-22.4327
1.24478 	-22.5359
1.24716 	-22.6385
1.24954 	-22.7405
1.25192 	-22.8419
1.2543 	-22.9427
1.25668 	-23.043
1.25906 	-23.1426
1.26144 	-23.2417
1.26382 	-23.3402
1.2662 	-23.4381
1.26858 	-23.5355
1.27096 	-23.6323
1.27334 	-23.7286
1.27572 	-23.8243
1.2781 	-23.9195
1.28048 	-24.0141
1.28286 	-24.1082
1.28524 	-24.2017
1.28762 	-24.2947
1.29 	-24.3872
1.29238 	-24.4792
1.29476 	-24.5706
1.29714 	-24.6616
1.29952 	-24.752
1.3019 	-24.8419
1.30428 	-24.9313
1.30666 	-25.0202
1.30904 	-25.1087
1.31142 	-25.1966
1.3138 	-25.284
1.31618 	-25.3709
1.31856 	-25.4574
1.32094 	-25.5434
1.32332 	-25.6289
1.3257 	-25.7139
1.32808 	-25.7985
1.33046 	-25.8826
1.33284 	-25.9662
1.33522 	-26.0494
1.3376 	-26.1321
1.33998 	-26.2144
1.34236 	-26.2962
1.34474 	-26.3776
1.34712 	-26.4585
1.3495 	-26.539
1.35188 	-26.619
1.35426 	-26.6987
1.35664 	-26.7778
1.35902 	-26.8566
1.3614 	-26.9349
1.36378 	-27.0128
1.36616 	-27.0903
1.36854 	-27.1674
1.37092 	-27.244
1.3733 	-27.3203
1.37568 	-27.3961
1.37806 	-27.4715
1.38044 	-27.5465
1.38282 	-27.6212
1.3852 	-27.6954
1.38758 	-27.7692
1.38996 	-27.8427
1.39234 	-27.9157
1.39472 	-27.9884
1.3971 	-28.0607
1.39948 	-28.1326
1.40186 	-28.2041
1.40424 	-28.2752
1.40662 	-28.346
1.409 	-28.4164
1.41138 	-28.4864
1.41376 	-28.5561
1.41614 	-28.6253
1.41852 	-28.6943
1.4209 	-28.7628
1.42328 	-28.8311
1.42566 	-28.8989
1.42804 	-28.9664
1.43042 	-29.0336
1.4328 	-29.1004
1.43518 	-29.1668
1.43756 	-29.233
1.43994 	-29.2987
1.44232 	-29.3642
1.4447 	-29.4293
1.44708 	-29.494
1.44946 	-29.5585
1.45184 	-29.6226
1.45422 	-29.6863
1.4566 	-29.7498
1.45898 	-29.8129
1.46136 	-29.8757
1.46374 	-29.9382
1.46612 	-30.0003
1.4685 	-30.0622
1.47088 	-30.1237
1.47326 	-30.1849
1.47564 	-30.2458
1.47802 	-30.3064
1.4804 	-30.3667
1.48278 	-30.4267
1.48516 	-30.4864
1.48754 	-30.5458
1.48992 	-30.6048
1.4923 	-30.6636
1.49468 	-30.7221
1.49706 	-30.7803
1.49944 	-30.8382
1.50182 	-30.8958
1.5042 	-30.9532
1.50658 	-31.0102
1.50896 	-31.067
1.51134 	-31.1234
1.51372 	-31.1796
1.5161 	-31.2355
1.51848 	-31.2912
1.52086 	-31.3465
1.52324 	-31.4016
1.52562 	-31.4564
1.528 	-31.511
1.53038 	-31.5652
1.53276 	-31.6192
1.53514 	-31.673
1.53752 	-31.7264
1.5399 	-31.7796
1.54228 	-31.8326
1.54466 	-31.8853
1.54704 	-31.9377
1.54942 	-31.9899
1.5518 	-32.0418
1.55418 	-32.0935
1.55656 	-32.1449
1.55894 	-32.196
1.56132 	-32.2469
1.5637 	-32.2976
1.56608 	-32.348
1.56846 	-32.3982
1.57084 	-32.4481
1.57322 	-32.4978
1.5756 	-32.5472
1.57798 	-32.5964
1.58036 	-32.6454
1.58274 	-32.6941
1.58512 	-32.7426
1.5875 	-32.7909
1.58988 	-32.8389
1.59226 	-32.8867
1.59464 	-32.9343
1.59702 	-32.9816
1.5994 	-33.0287
1.60178 	-33.0756
1.60416 	-33.1222
1.60654 	-33.1687
1.60892 	-33.2149
1.6113 	-33.2609
1.61368 	-33.3066
1.61606 	-33.3522
1.61844 	-33.3975
1.62082 	-33.4426
1.6232 	-33.4875
1.62558 	-33.5322
1.62796 	-33.5767
1.63034 	-33.621
1.63272 	-33.665
1.6351 	-33.7089
1.63748 	-33.7525
1.63986 	-33.7959
1.64224 	-33.8392
1.64462 	-33.8822
1.647 	-33.925
1.64938 	-33.9676
1.65176 	-34.01
1.65414 	-34.0522
1.65652 	-34.0942
1.6589 	-34.1361
1.66128 	-34.1777
1.66366 	-34.2191
1.66604 	-34.2603
1.66842 	-34.3014
1.6708 	-34.3422
1.67318 	-34.3828
1.67556 	-34.4233
1.67794 	-34.4636
1.68032 	-34.5037
1.6827 	-34.5435
1.68508 	-34.5833
1.68746 	-34.6228
1.68984 	-34.6621
1.69222 	-34.7013
1.6946 	-34.7402
1.69698 	-34.779
1.69936 	-34.8176
1.70174 	-34.856
1.70412 	-34.8943
1.7065 	-34.9324
1.70888 	-34.9703
1.71126 	-35.008
1.71364 	-35.0455
1.71602 	-35.0829
1.7184 	-35.1201
1.72078 	-35.1571
1.72316 	-35.1939
1.72554 	-35.2306
1.72792 	-35.2671
1.7303 	-35.3035
1.73268 	-35.3396
1.73506 	-35.3756
1.73744 	-35.4115
1.73982 	-35.4471
1.7422 	-35.4826
1.74458 	-35.518
1.74696 	-35.5531
1.74934 	-35.5882
1.75172 	-35.623
1.7541 	-35.6577
1.75648 	-35.6922
1.75886 	-35.7266
1.76124 	-35.7608
1.76362 	-35.7949
1.766 	-35.8288
1.76838 	-35.8625
1.77076 	-35.8961
1.77314 	-35.9295
1.77552 	-35.9628
1.7779 	-35.996
1.78028 	-36.0289
1.78266 	-36.0618
1.78504 	-36.0944
1.78742 	-36.1269
1.7898 	-36.1593
1.79218 	-36.1915
1.79456 	-36.2236
1.79694 	-36.2555
1.79932 	-36.2873
1.8017 	-36.319
1.80408 	-36.3505
1.80646 	-36.3818
1.80884 	-36.413
1.81122 	-36.4441
1.8136 	-36.475
1.81598 	-36.5058
1.81836 	-36.5364
1.82074 	-36.5669
1.82312 	-36.5972
1.8255 	-36.6275
1.82788 	-36.6575
1.83026 	-36.6875
1.83264 	-36.7173
1.83502 	-36.7469
1.8374 	-36.7765
1.83978 	-36.8059
1.84216 	-36.8351
1.84454 	-36.8642
1.84692 	-36.8932
1.8493 	-36.9221
1.85168 	-36.9508
1.85406 	-36.9794
1.85644 	-37.0079
1.85882 	-37.0362
1.8612 	-37.0644
1.86358 	-37.0925
1.86596 	-37.1204
1.86834 	-37.1482
1.87072 	-37.1759
1.8731 	-37.2035
1.87548 	-37.2309
1.87786 	-37.2582
1.88024 	-37.2854
1.88262 	-37.3125
1.885 	-37.3394
1.88738 	-37.3662
1.88976 	-37.3929
1.89214 	-37.4195
1.89452 	-37.4459
1.8969 	-37.4722
1.89928 	-37.4984
1.90166 	-37.5245
1.90404 	-37.5505
1.90642 	-37.5763
1.9088 	-37.602
1.91118 	-37.6276
1.91356 	-37.6531
1.91594 	-37.6785
1.91832 	-37.7037
1.9207 	-37.7289
1.92308 	-37.7539
1.92546 	-37.7788
1.92784 	-37.8036
1.93022 	-37.8283
1.9326 	-37.8528
1.93498 	-37.8773
1.93736 	-37.9016
1.93974 	-37.9258
1.94212 	-37.9499
1.9445 	-37.9739
1.94688 	-37.9978
1.94926 	-38.0216
1.95164 	-38.0453
1.95402 	-38.0688
1.9564 	-38.0923
1.95878 	-38.1156
1.96116 	-38.1388
1.96354 	-38.1619
1.96592 	-38.1849
1.9683 	-38.2079
1.97068 	-38.2306
1.97306 	-38.2533
1.97544 	-38.2759
1.97782 	-38.2984
1.9802 	-38.3208
1.98258 	-38.3431
1.98496 	-38.3652
1.98734 	-38.3873
1.98972 	-38.4092
1.9921 	-38.4311
1.99448 	-38.4528
1.99686 	-38.4745
1.99924 	-38.496
2.00162 	-38.5175
2.004 	-38.5388
2.00638 	-38.5601
2.00876 	-38.5812
2.01114 	-38.6023
2.01352 	-38.6232
2.0159 	-38.6441
2.01828 	-38.6648
2.02066 	-38.6855
2.02304 	-38.706
2.02542 	-38.7265
2.0278 	-38.7468
2.03018 	-38.7671
2.03256 	-38.7873
2.03494 	-38.8073
2.03732 	-38.8273
2.0397 	-38.8472
2.04208 	-38.867
2.04446 	-38.8866
2.04684 	-38.9062
2.04922 	-38.9257
2.0516 	-38.9451
2.05398 	-38.9644
2.05636 	-38.9837
2.05874 	-39.0028
2.06112 	-39.0218
2.0635 	-39.0408
2.06588 	-39.0596
2.06826 	-39.0784
2.07064 	-39.097
2.07302 	-39.1156
2.0754 	-39.1341
2.07778 	-39.1525
2.08016 	-39.1708
2.08254 	-39.189
2.08492 	-39.2071
2.0873 	-39.2252
2.08968 	-39.2431
2.09206 	-39.261
2.09444 	-39.2787
2.09682 	-39.2964
2.0992 	-39.314
2.10158 	-39.3315
2.10396 	-39.349
2.10634 	-39.3663
2.10872 	-39.3836
2.1111 	-39.4007
2.11348 	-39.4178
2.11586 	-39.4348
2.11824 	-39.4517
2.12062 	-39.4685
2.123 	-39.4853
2.12538 	-39.5019
2.12776 	-39.5185
2.13014 	-39.535
2.13252 	-39.5514
2.1349 	-39.5677
2.13728 	-39.5839
2.13966 	-39.6001
2.14204 	-39.6162
2.14442 	-39.6322
2.1468 	-39.6481
2.14918 	-39.6639
2.15156 	-39.6796
2.15394 	-39.6953
2.15632 	-39.7109
2.1587 	-39.7264
2.16108 	-39.7418
2.16346 	-39.7572
2.16584 	-39.7724
2.16822 	-39.7876
2.1706 	-39.8027
2.17298 	-39.8177
2.17536 	-39.8327
2.17774 	-39.8476
2.18012 	-39.8623
2.1825 	-39.8771
2.18488 	-39.8917
2.18726 	-39.9062
2.18964 	-39.9207
2.19202 	-39.9351
2.1944 	-39.9495
2.19678 	-39.9637
2.19916 	-39.9779
2.20154 	-39.992
2.20392 	-40.006
2.2063 	-40.0199
2.20868 	-40.0338
2.21106 	-40.0476
2.21344 	-40.0613
2.21582 	-40.0749
2.2182 	-40.0885
2.22058 	-40.102
2.22296 	-40.1154
2.22534 	-40.1288
2.22772 	-40.142
2.2301 	-40.1552
2.23248 	-40.1684
2.23486 	-40.1814
2.23724 	-40.1944
2.23962 	-40.2073
2.242 	-40.2201
2.24438 	-40.2329
2.24676 	-40.2456
2.24914 	-40.2582
2.25152 	-40.2707
2.2539 	-40.2832
2.25628 	-40.2956
2.25866 	-40.3079
2.26104 	-40.3202
2.26342 	-40.3324
2.2658 	-40.3445
2.26818 	-40.3565
2.27056 	-40.3685
2.27294 	-40.3804
2.27532 	-40.3922
2.2777 	-40.404
2.28008 	-40.4157
2.28246 	-40.4273
2.28484 	-40.4389
2.28722 	-40.4503
2.2896 	-40.4618
2.29198 	-40.4731
2.29436 	-40.4844
2.29674 	-40.4956
2.29912 	-40.5067
2.3015 	-40.5178
2.30388 	-40.5288
2.30626 	-40.5398
2.30864 	-40.5506
2.31102 	-40.5614
2.3134 	-40.5722
2.31578 	-40.5828
2.31816 	-40.5934
2.32054 	-40.604
2.32292 	-40.6144
2.3253 	-40.6248
2.32768 	-40.6352
2.33006 	-40.6454
2.33244 	-40.6556
2.33482 	-40.6658
2.3372 	-40.6758
2.33958 	-40.6858
2.34196 	-40.6958
2.34434 	-40.7056
2.34672 	-40.7155
2.3491 	-40.7252
2.35148 	-40.7349
2.35386 	-40.7445
2.35624 	-40.754
2.35862 	-40.7635
2.361 	-40.7729
2.36338 	-40.7823
2.36576 	-40.7916
2.36814 	-40.8008
2.37052 	-40.81
2.3729 	-40.8191
2.37528 	-40.8281
2.37766 	-40.8371
2.38004 	-40.846
2.38242 	-40.8548
2.3848 	-40.8636
2.38718 	-40.8723
2.38956 	-40.881
2.39194 	-40.8895
2.39432 	-40.8981
2.3967 	-40.9065
2.39908 	-40.9149
2.40146 	-40.9233
2.40384 	-40.9316
2.40622 	-40.9398
2.4086 	-40.9479
2.41098 	-40.956
2.41336 	-40.9641
2.41574 	-40.972
2.41812 	-40.9799
2.4205 	-40.9878
2.42288 	-40.9956
2.42526 	-41.0033
2.42764 	-41.011
2.43002 	-41.0186
2.4324 	-41.0261
2.43478 	-41.0336
2.43716 	-41.041
2.43954 	-41.0484
2.44192 	-41.0557
2.4443 	-41.0629
2.44668 	-41.0701
2.44906 	-41.0772
2.45144 	-41.0843
2.45382 	-41.0912
2.4562 	-41.0982
2.45858 	-41.1051
2.46096 	-41.1119
2.46334 	-41.1186
2.46572 	-41.1253
2.4681 	-41.132
2.47048 	-41.1386
2.47286 	-41.1451
2.47524 	-41.1516
2.47762 	-41.158
2.48 	-41.1643
2.48238 	-41.1706
2.48476 	-41.1768
2.48714 	-41.183
2.48952 	-41.1891
2.4919 	-41.1951
2.49428 	-41.2011
2.49666 	-41.2071
2.49904 	-41.213
2.50142 	-41.2188
2.5038 	-41.2245
2.50618 	-41.2302
2.50856 	-41.2359
2.51094 	-41.2415
2.51332 	-41.247
2.5157 	-41.2525
2.51808 	-41.2579
2.52046 	-41.2632
2.52284 	-41.2685
2.52522 	-41.2738
2.5276 	-41.279
2.52998 	-41.2841
2.53236 	-41.2892
2.53474 	-41.2942
2.53712 	-41.2991
2.5395 	-41.304
2.54188 	-41.3089
2.54426 	-41.3137
2.54664 	-41.3184
2.54902 	-41.3231
2.5514 	-41.3277
2.55378 	-41.3322
2.55616 	-41.3367
2.55854 	-41.3412
2.56092 	-41.3456
2.5633 	-41.3499
2.56568 	-41.3542
2.56806 	-41.3584
2.57044 	-41.3626
2.57282 	-41.3667
2.5752 	-41.3707
2.57758 	-41.3747
2.57996 	-41.3787
2.58234 	-41.3826
2.58472 	-41.3864
2.5871 	-41.3902
2.58948 	-41.3939
2.59186 	-41.3976
2.59424 	-41.4012
2.59662 	-41.4047
2.599 	-41.4082
2.60138 	-41.4117
2.60376 	-41.415
2.60614 	-41.4184
2.60852 	-41.4217
2.6109 	-41.4249
2.61328 	-41.428
2.61566 	-41.4312
2.61804 	-41.4342
2.62042 	-41.4372
2.6228 	-41.4402
2.62518 	-41.4431
2.62756 	-41.4459
2.62994 	-41.4487
2.63232 	-41.4514
2.6347 	-41.4541
2.63708 	-41.4567
2.63946 	-41.4593
2.64184 	-41.4618
2.64422 	-41.4642
2.6466 	-41.4666
2.64898 	-41.469
2.65136 	-41.4713
2.65374 	-41.4735
2.65612 	-41.4757
2.6585 	-41.4778
2.66088 	-41.4799
2.66326 	-41.4819
2.66564 	-41.4839
2.66802 	-41.4858
2.6704 	-41.4876
2.67278 	-41.4894
2.67516 	-41.4912
2.67754 	-41.4929
2.67992 	-41.4945
2.6823 	-41.4961
2.68468 	-41.4977
2.68706 	-41.4991
2.68944 	-41.5006
2.69182 	-41.5019
2.6942 	-41.5033
2.69658 	-41.5045
2.69896 	-41.5057
2.70134 	-41.5069
2.70372 	-41.508
2.7061 	-41.5091
2.70848 	-41.5101
2.71086 	-41.511
2.71324 	-41.5119
2.71562 	-41.5127
2.718 	-41.5135
2.72038 	-41.5142
2.72276 	-41.5149
2.72514 	-41.5155
2.72752 	-41.5161
2.7299 	-41.5166
2.73228 	-41.5171
2.73466 	-41.5175
2.73704 	-41.5179
2.73942 	-41.5182
2.7418 	-41.5184
2.74418 	-41.5186
2.74656 	-41.5188
2.74894 	-41.5189
2.75132 	-41.5189
2.7537 	-41.5189
2.75608 	-41.5188
2.75846 	-41.5187
2.76084 	-41.5185
2.76322 	-41.5183
2.7656 	-41.518
2.76798 	-41.5177
2.77036 	-41.5173
2.77274 	-41.5168
2.77512 	-41.5164
2.7775 	-41.5158
2.77988 	-41.5152
2.78226 	-41.5146
2.78464 	-41.5139
2.78702 	-41.5131
2.7894 	-41.5123
2.79178 	-41.5114
2.79416 	-41.5105
2.79654 	-41.5095
2.79892 	-41.5085
2.8013 	-41.5075
2.80368 	-41.5063
