# Mass = 0.0473905 Mev*(hbarc)^2/2 
# R = 4.82059 fm 
# a = 0.662 fm 
# V0 = 50.276 MeV 
# RSO = 4.43035 fm 
# aSO = 0.662 fm 
# VSO = 28.6062 MeV fm^2
# n = 0 
# l = 1 
# two_j = 3 
# two_t = -1 
# Energy = -32.0795 MeV
# r          u            Phi          u/r          
0.1          0.00170966   0.000244053  0.0170966    
0.10238      0.00179201   0.000249836  0.0175035    
0.10476      0.00187628   0.000255617  0.0179103    
0.10714      0.00196248   0.000261397  0.018317     
0.10952      0.00205061   0.000267175  0.0187236    
0.1119       0.00214066   0.000272952  0.0191301    
0.11428      0.00223264   0.000278728  0.0195366    
0.11666      0.00232654   0.000284502  0.019943     
0.11904      0.00242238   0.000290275  0.0203493    
0.12142      0.00252013   0.000296046  0.0207555    
0.1238       0.00261981   0.000301815  0.0211616    
0.12618      0.00272141   0.000307583  0.0215677    
0.12856      0.00282494   0.000313349  0.0219737    
0.13094      0.00293038   0.000319113  0.0223796    
0.13332      0.00303775   0.000324875  0.0227854    
0.1357       0.00314705   0.000330636  0.0231912    
0.13808      0.00325826   0.000336395  0.0235969    
0.14046      0.00337139   0.000342151  0.0240025    
0.14284      0.00348644   0.000347906  0.024408     
0.14522      0.00360341   0.000353659  0.0248134    
0.1476       0.00372229   0.00035941   0.0252188    
0.14998      0.0038431    0.000365159  0.0256241    
0.15236      0.00396582   0.000370905  0.0260293    
0.15474      0.00409046   0.00037665   0.0264344    
0.15712      0.00421701   0.000382392  0.0268394    
0.1595       0.00434548   0.000388132  0.0272444    
0.16188      0.00447586   0.00039387   0.0276492    
0.16426      0.00460815   0.000399605  0.028054     
0.16664      0.00474235   0.000405338  0.0284587    
0.16902      0.00487847   0.000411069  0.0288633    
0.1714       0.0050165    0.000416798  0.0292678    
0.17378      0.00515643   0.000422524  0.0296722    
0.17616      0.00529828   0.000428247  0.0300765    
0.17854      0.00544203   0.000433968  0.0304807    
0.18092      0.00558769   0.000439687  0.0308849    
0.1833       0.00573526   0.000445403  0.0312889    
0.18568      0.00588473   0.000451116  0.0316929    
0.18806      0.00603611   0.000456827  0.0320967    
0.19044      0.00618939   0.000462535  0.0325005    
0.19282      0.00634458   0.00046824   0.0329041    
0.1952       0.00650166   0.000473943  0.0333077    
0.19758      0.00666065   0.000479643  0.0337112    
0.19996      0.00682154   0.00048534   0.0341145    
0.20234      0.00698433   0.000491034  0.0345178    
0.20472      0.00714901   0.000496725  0.0349209    
0.2071       0.00731559   0.000502413  0.035324     
0.20948      0.00748407   0.000508099  0.0357269    
0.21186      0.00765445   0.000513781  0.0361297    
0.21424      0.00782671   0.000519461  0.0365325    
0.21662      0.00800088   0.000525137  0.0369351    
0.219        0.00817693   0.00053081   0.0373376    
0.22138      0.00835487   0.000536481  0.03774      
0.22376      0.00853471   0.000542148  0.0381423    
0.22614      0.00871643   0.000547811  0.0385444    
0.22852      0.00890005   0.000553472  0.0389465    
0.2309       0.00908555   0.000559129  0.0393484    
0.23328      0.00927293   0.000564784  0.0397502    
0.23566      0.0094622    0.000570434  0.0401519    
0.23804      0.00965336   0.000576082  0.0405535    
0.24042      0.00984639   0.000581726  0.040955     
0.2428       0.0100413    0.000587366  0.0413563    
0.24518      0.0102381    0.000593004  0.0417575    
0.24756      0.0104368    0.000598637  0.0421586    
0.24994      0.0106373    0.000604267  0.0425596    
0.25232      0.0108398    0.000609894  0.0429604    
0.2547       0.0110441    0.000615517  0.0433611    
0.25708      0.0112503    0.000621137  0.0437617    
0.25946      0.0114583    0.000626752  0.0441622    
0.26184      0.0116682    0.000632364  0.0445625    
0.26422      0.01188      0.000637973  0.0449627    
0.2666       0.0120937    0.000643577  0.0453628    
0.26898      0.0123093    0.000649178  0.0457627    
0.27136      0.0125267    0.000654775  0.0461625    
0.27374      0.0127459    0.000660368  0.0465621    
0.27612      0.0129671    0.000665958  0.0469617    
0.2785       0.0131901    0.000671543  0.047361     
0.28088      0.0134149    0.000677124  0.0477603    
0.28326      0.0136416    0.000682702  0.0481594    
0.28564      0.0138702    0.000688275  0.0485583    
0.28802      0.0141006    0.000693844  0.0489572    
0.2904       0.0143329    0.00069941   0.0493558    
0.29278      0.0145671    0.000704971  0.0497543    
0.29516      0.0148031    0.000710528  0.0501527    
0.29754      0.0150409    0.000716081  0.050551     
0.29992      0.0152806    0.000721629  0.050949     
0.3023       0.0155222    0.000727174  0.051347     
0.30468      0.0157656    0.000732714  0.0517447    
0.30706      0.0160108    0.00073825   0.0521424    
0.30944      0.0162579    0.000743781  0.0525398    
0.31182      0.0165069    0.000749308  0.0529372    
0.3142       0.0167576    0.000754831  0.0533343    
0.31658      0.0170103    0.000760349  0.0537313    
0.31896      0.0172647    0.000765863  0.0541282    
0.32134      0.017521     0.000771372  0.0545249    
0.32372      0.0177792    0.000776877  0.0549214    
0.3261       0.0180391    0.000782377  0.0553178    
0.32848      0.0183009    0.000787872  0.055714     
0.33086      0.0185646    0.000793363  0.05611      
0.33324      0.01883      0.00079885   0.0565059    
0.33562      0.0190973    0.000804331  0.0569016    
0.338        0.0193664    0.000809808  0.0572971    
0.34038      0.0196374    0.00081528   0.0576925    
0.34276      0.0199101    0.000820747  0.0580877    
0.34514      0.0201847    0.00082621   0.0584827    
0.34752      0.0204611    0.000831667  0.0588776    
0.3499       0.0207394    0.00083712   0.0592723    
0.35228      0.0210194    0.000842567  0.0596668    
0.35466      0.0213013    0.00084801   0.0600611    
0.35704      0.021585     0.000853448  0.0604553    
0.35942      0.0218705    0.000858881  0.0608493    
0.3618       0.0221578    0.000864308  0.0612431    
0.36418      0.0224469    0.000869731  0.0616367    
0.36656      0.0227378    0.000875149  0.0620302    
0.36894      0.0230305    0.000880561  0.0624234    
0.37132      0.023325     0.000885968  0.0628165    
0.3737       0.0236214    0.00089137   0.0632094    
0.37608      0.0239195    0.000896767  0.0636021    
0.37846      0.0242194    0.000902158  0.0639946    
0.38084      0.0245211    0.000907544  0.064387     
0.38322      0.0248247    0.000912925  0.0647791    
0.3856       0.02513      0.0009183    0.0651711    
0.38798      0.0254371    0.00092367   0.0655629    
0.39036      0.025746     0.000929035  0.0659544    
0.39274      0.0260567    0.000934394  0.0663458    
0.39512      0.0263691    0.000939748  0.066737     
0.3975       0.0266834    0.000945096  0.067128     
0.39988      0.0269994    0.000950438  0.0675188    
0.40226      0.0273172    0.000955775  0.0679094    
0.40464      0.0276368    0.000961106  0.0682998    
0.40702      0.0279582    0.000966432  0.06869      
0.4094       0.0282813    0.000971752  0.06908      
0.41178      0.0286063    0.000977066  0.0694697    
0.41416      0.0289329    0.000982374  0.0698593    
0.41654      0.0292614    0.000987677  0.0702487    
0.41892      0.0295916    0.000992974  0.0706379    
0.4213       0.0299236    0.000998265  0.0710269    
0.42368      0.0302574    0.00100355   0.0714156    
0.42606      0.0305929    0.00100883   0.0718042    
0.42844      0.0309302    0.0010141    0.0721925    
0.43082      0.0312692    0.00101937   0.0725806    
0.4332       0.03161      0.00102463   0.0729686    
0.43558      0.0319525    0.00102989   0.0733563    
0.43796      0.0322968    0.00103514   0.0737438    
0.44034      0.0326429    0.00104038   0.074131     
0.44272      0.0329906    0.00104562   0.0745181    
0.4451       0.0333402    0.00105085   0.0749049    
0.44748      0.0336915    0.00105607   0.0752915    
0.44986      0.0340445    0.00106129   0.0756779    
0.45224      0.0343992    0.0010665    0.0760641    
0.45462      0.0347557    0.00107171   0.0764501    
0.457        0.035114     0.00107691   0.0768358    
0.45938      0.0354739    0.0010821    0.0772213    
0.46176      0.0358356    0.00108729   0.0776066    
0.46414      0.036199     0.00109247   0.0779916    
0.46652      0.0365642    0.00109764   0.0783765    
0.4689       0.0369311    0.00110281   0.0787611    
0.47128      0.0372997    0.00110797   0.0791454    
0.47366      0.03767      0.00111313   0.0795296    
0.47604      0.038042     0.00111827   0.0799135    
0.47842      0.0384158    0.00112341   0.0802971    
0.4808       0.0387912    0.00112855   0.0806806    
0.48318      0.0391684    0.00113368   0.0810638    
0.48556      0.0395473    0.0011388    0.0814467    
0.48794      0.0399279    0.00114391   0.0818294    
0.49032      0.0403101    0.00114902   0.0822119    
0.4927       0.0406941    0.00115412   0.0825941    
0.49508      0.0410798    0.00115922   0.0829761    
0.49746      0.0414672    0.0011643    0.0833579    
0.49984      0.0418563    0.00116939   0.0837394    
0.50222      0.0422471    0.00117446   0.0841207    
0.5046       0.0426396    0.00117953   0.0845017    
0.50698      0.0430337    0.00118459   0.0848825    
0.50936      0.0434296    0.00118964   0.085263     
0.51174      0.0438271    0.00119469   0.0856433    
0.51412      0.0442263    0.00119972   0.0860233    
0.5165       0.0446272    0.00120476   0.0864031    
0.51888      0.0450298    0.00120978   0.0867826    
0.52126      0.045434     0.0012148    0.0871619    
0.52364      0.0458399    0.00121981   0.0875409    
0.52602      0.0462475    0.00122481   0.0879197    
0.5284       0.0466567    0.00122981   0.0882982    
0.53078      0.0470677    0.0012348    0.0886764    
0.53316      0.0474802    0.00123978   0.0890544    
0.53554      0.0478945    0.00124475   0.0894321    
0.53792      0.0483104    0.00124972   0.0898096    
0.5403       0.0487279    0.00125468   0.0901868    
0.54268      0.0491471    0.00125963   0.0905637    
0.54506      0.049568     0.00126458   0.0909404    
0.54744      0.0499905    0.00126951   0.0913168    
0.54982      0.0504146    0.00127444   0.0916929    
0.5522       0.0508404    0.00127937   0.0920688    
0.55458      0.0512678    0.00128428   0.0924444    
0.55696      0.0516969    0.00128919   0.0928197    
0.55934      0.0521276    0.00129409   0.0931948    
0.56172      0.0525599    0.00129898   0.0935696    
0.5641       0.0529939    0.00130386   0.0939441    
0.56648      0.0534295    0.00130874   0.0943184    
0.56886      0.0538667    0.00131361   0.0946923    
0.57124      0.0543055    0.00131847   0.095066     
0.57362      0.054746     0.00132332   0.0954394    
0.576        0.055188     0.00132817   0.0958126    
0.57838      0.0556317    0.00133301   0.0961854    
0.58076      0.056077     0.00133784   0.096558     
0.58314      0.0565239    0.00134266   0.0969303    
0.58552      0.0569725    0.00134747   0.0973023    
0.5879       0.0574226    0.00135228   0.097674     
0.59028      0.0578743    0.00135708   0.0980455    
0.59266      0.0583276    0.00136187   0.0984167    
0.59504      0.0587825    0.00136665   0.0987875    
0.59742      0.059239     0.00137142   0.0991581    
0.5998       0.0596971    0.00137619   0.0995284    
0.60218      0.0601568    0.00138095   0.0998984    
0.60456      0.0606181    0.0013857    0.100268     
0.60694      0.0610809    0.00139044   0.100638     
0.60932      0.0615454    0.00139517   0.101007     
0.6117       0.0620114    0.0013999    0.101375     
0.61408      0.062479     0.00140461   0.101744     
0.61646      0.0629481    0.00140932   0.102112     
0.61884      0.0634189    0.00141402   0.10248      
0.62122      0.0638911    0.00141871   0.102848     
0.6236       0.064365     0.0014234    0.103215     
0.62598      0.0648404    0.00142807   0.103582     
0.62836      0.0653174    0.00143274   0.103949     
0.63074      0.0657959    0.0014374    0.104315     
0.63312      0.066276     0.00144205   0.104682     
0.6355       0.0667576    0.00144669   0.105047     
0.63788      0.0672408    0.00145132   0.105413     
0.64026      0.0677255    0.00145595   0.105778     
0.64264      0.0682118    0.00146056   0.106143     
0.64502      0.0686996    0.00146517   0.106508     
0.6474       0.0691889    0.00146977   0.106872     
0.64978      0.0696798    0.00147436   0.107236     
0.65216      0.0701721    0.00147894   0.1076       
0.65454      0.0706661    0.00148351   0.107963     
0.65692      0.0711615    0.00148807   0.108326     
0.6593       0.0716585    0.00149263   0.108689     
0.66168      0.0721569    0.00149717   0.109051     
0.66406      0.0726569    0.00150171   0.109413     
0.66644      0.0731584    0.00150624   0.109775     
0.66882      0.0736614    0.00151076   0.110136     
0.6712       0.074166     0.00151527   0.110498     
0.67358      0.074672     0.00151977   0.110858     
0.67596      0.0751795    0.00152426   0.111219     
0.67834      0.0756885    0.00152874   0.111579     
0.68072      0.076199     0.00153322   0.111939     
0.6831       0.076711     0.00153768   0.112298     
0.68548      0.0772245    0.00154214   0.112658     
0.68786      0.0777395    0.00154659   0.113016     
0.69024      0.0782559    0.00155103   0.113375     
0.69262      0.0787739    0.00155545   0.113733     
0.695        0.0792933    0.00155987   0.114091     
0.69738      0.0798142    0.00156428   0.114449     
0.69976      0.0803365    0.00156869   0.114806     
0.70214      0.0808603    0.00157308   0.115163     
0.70452      0.0813856    0.00157746   0.115519     
0.7069       0.0819123    0.00158183   0.115875     
0.70928      0.0824405    0.0015862    0.116231     
0.71166      0.0829702    0.00159055   0.116587     
0.71404      0.0835013    0.0015949    0.116942     
0.71642      0.0840338    0.00159923   0.117297     
0.7188       0.0845678    0.00160356   0.117651     
0.72118      0.0851032    0.00160788   0.118006     
0.72356      0.0856401    0.00161218   0.118359     
0.72594      0.0861784    0.00161648   0.118713     
0.72832      0.0867181    0.00162077   0.119066     
0.7307       0.0872593    0.00162505   0.119419     
0.73308      0.0878019    0.00162932   0.119771     
0.73546      0.0883459    0.00163358   0.120123     
0.73784      0.0888913    0.00163783   0.120475     
0.74022      0.0894382    0.00164207   0.120826     
0.7426       0.0899864    0.0016463    0.121177     
0.74498      0.0905361    0.00165052   0.121528     
0.74736      0.0910871    0.00165473   0.121879     
0.74974      0.0916396    0.00165893   0.122229     
0.75212      0.0921935    0.00166312   0.122578     
0.7545       0.0927488    0.0016673    0.122927     
0.75688      0.0933054    0.00167147   0.123276     
0.75926      0.0938635    0.00167563   0.123625     
0.76164      0.0944229    0.00167979   0.123973     
0.76402      0.0949837    0.00168393   0.124321     
0.7664       0.0955459    0.00168806   0.124668     
0.76878      0.0961095    0.00169218   0.125016     
0.77116      0.0966744    0.00169629   0.125362     
0.77354      0.0972408    0.00170039   0.125709     
0.77592      0.0978084    0.00170449   0.126055     
0.7783       0.0983775    0.00170857   0.1264       
0.78068      0.0989479    0.00171264   0.126746     
0.78306      0.0995196    0.0017167    0.127091     
0.78544      0.100093     0.00172075   0.127435     
0.78782      0.100667     0.00172479   0.127779     
0.7902       0.101243     0.00172882   0.128123     
0.79258      0.10182      0.00173284   0.128467     
0.79496      0.102399     0.00173686   0.12881      
0.79734      0.102978     0.00174086   0.129153     
0.79972      0.10356      0.00174485   0.129495     
0.8021       0.104142     0.00174882   0.129837     
0.80448      0.104726     0.00175279   0.130178     
0.80686      0.105311     0.00175675   0.13052      
0.80924      0.105898     0.0017607    0.13086      
0.81162      0.106485     0.00176464   0.131201     
0.814        0.107074     0.00176857   0.131541     
0.81638      0.107665     0.00177248   0.131881     
0.81876      0.108256     0.00177639   0.13222      
0.82114      0.108849     0.00178029   0.132559     
0.82352      0.109444     0.00178417   0.132897     
0.8259       0.110039     0.00178805   0.133236     
0.82828      0.110636     0.00179191   0.133573     
0.83066      0.111234     0.00179576   0.133911     
0.83304      0.111834     0.00179961   0.134248     
0.83542      0.112434     0.00180344   0.134584     
0.8378       0.113036     0.00180726   0.134921     
0.84018      0.11364      0.00181107   0.135256     
0.84256      0.114244     0.00181487   0.135592     
0.84494      0.11485      0.00181866   0.135927     
0.84732      0.115457     0.00182244   0.136262     
0.8497       0.116065     0.00182621   0.136596     
0.85208      0.116675     0.00182997   0.13693      
0.85446      0.117286     0.00183371   0.137263     
0.85684      0.117898     0.00183745   0.137596     
0.85922      0.118511     0.00184117   0.137929     
0.8616       0.119126     0.00184489   0.138261     
0.86398      0.119742     0.00184859   0.138593     
0.86636      0.120359     0.00185228   0.138925     
0.86874      0.120977     0.00185596   0.139256     
0.87112      0.121596     0.00185963   0.139586     
0.8735       0.122217     0.00186329   0.139917     
0.87588      0.122839     0.00186694   0.140246     
0.87826      0.123462     0.00187057   0.140576     
0.88064      0.124087     0.0018742    0.140905     
0.88302      0.124712     0.00187781   0.141234     
0.8854       0.125339     0.00188142   0.141562     
0.88778      0.125967     0.00188501   0.14189      
0.89016      0.126596     0.00188859   0.142217     
0.89254      0.127226     0.00189216   0.142544     
0.89492      0.127858     0.00189572   0.142871     
0.8973       0.128491     0.00189926   0.143197     
0.89968      0.129125     0.0019028    0.143523     
0.90206      0.12976      0.00190632   0.143848     
0.90444      0.130396     0.00190984   0.144173     
0.90682      0.131033     0.00191334   0.144498     
0.9092       0.131672     0.00191683   0.144822     
0.91158      0.132312     0.00192031   0.145145     
0.91396      0.132953     0.00192378   0.145469     
0.91634      0.133595     0.00192723   0.145792     
0.91872      0.134238     0.00193068   0.146114     
0.9211       0.134882     0.00193411   0.146436     
0.92348      0.135528     0.00193754   0.146758     
0.92586      0.136174     0.00194095   0.147079     
0.92824      0.136822     0.00194435   0.147399     
0.93062      0.137471     0.00194773   0.14772      
0.933        0.138121     0.00195111   0.14804      
0.93538      0.138772     0.00195447   0.148359     
0.93776      0.139424     0.00195783   0.148678     
0.94014      0.140078     0.00196117   0.148997     
0.94252      0.140732     0.0019645    0.149315     
0.9449       0.141388     0.00196781   0.149633     
0.94728      0.142045     0.00197112   0.14995      
0.94966      0.142703     0.00197441   0.150267     
0.95204      0.143361     0.0019777    0.150583     
0.95442      0.144021     0.00198097   0.150899     
0.9568       0.144683     0.00198423   0.151215     
0.95918      0.145345     0.00198748   0.15153      
0.96156      0.146008     0.00199071   0.151845     
0.96394      0.146672     0.00199393   0.152159     
0.96632      0.147338     0.00199715   0.152473     
0.9687       0.148004     0.00200035   0.152787     
0.97108      0.148672     0.00200353   0.153099     
0.97346      0.14934      0.00200671   0.153412     
0.97584      0.15001      0.00200988   0.153724     
0.97822      0.150681     0.00201303   0.154036     
0.9806       0.151353     0.00201617   0.154347     
0.98298      0.152025     0.0020193    0.154658     
