# Mass = 0.0473265 Mev*(hbarc)^2/2 
# R = 4.82059 fm 
# a = 0.662 fm 
# V0 = 56.2183 MeV 
# RSO = 4.438 fm 
# aSO = 0.662 fm 
# VSO = 28.772 MeV fm^2
# l = 1 
# two_j = 1 
# two_t = 1 
# Energy = -25.6405 MeV
# r 	 V_eff [2m/hbar/hbar]
0.01 	422557
0.012398 	274890
0.014796 	192994
0.017194 	142904
0.019592 	110053
0.02199 	87350.3
0.024388 	71008.8
0.026786 	58856.4
0.029184 	49574.6
0.031582 	42325.6
0.03398 	36556.5
0.036378 	31890.2
0.038776 	28062.5
0.041174 	24884
0.043572 	22215.6
0.04597 	19953.8
0.048368 	18020
0.050766 	16353.7
0.053164 	14907.8
0.055562 	13645
0.05796 	12535.7
0.060358 	11555.9
0.062756 	10686.3
0.065154 	9910.97
0.067552 	9216.7
0.06995 	8592.61
0.072348 	8029.54
0.074746 	7519.78
0.077144 	7056.82
0.079542 	6635.1
0.08194 	6249.85
0.084338 	5897
0.086736 	5573
0.089134 	5274.81
0.091532 	4999.74
0.09393 	4745.46
0.096328 	4509.94
0.098726 	4291.37
0.101124 	4088.17
0.103522 	3898.92
0.10592 	3722.38
0.108318 	3557.43
0.110716 	3403.09
0.113114 	3258.45
0.115512 	3122.73
0.11791 	2995.21
0.120308 	2875.23
0.122706 	2762.22
0.125104 	2655.65
0.127502 	2555.03
0.1299 	2459.93
0.132298 	2369.96
0.134696 	2284.75
0.137094 	2203.97
0.139492 	2127.32
0.14189 	2054.52
0.144288 	1985.33
0.146686 	1919.5
0.149084 	1856.82
0.151482 	1797.09
0.15388 	1740.13
0.156278 	1685.78
0.158676 	1633.87
0.161074 	1584.26
0.163472 	1536.82
0.16587 	1491.42
0.168268 	1447.95
0.170666 	1406.3
0.173064 	1366.36
0.175462 	1328.06
0.17786 	1291.29
0.180258 	1255.98
0.182656 	1222.05
0.185054 	1189.43
0.187452 	1158.06
0.18985 	1127.86
0.192248 	1098.79
0.194646 	1070.79
0.197044 	1043.8
0.199442 	1017.79
0.20184 	992.688
0.204238 	968.469
0.206636 	945.089
0.209034 	922.508
0.211432 	900.692
0.21383 	879.605
0.216228 	859.216
0.218626 	839.495
0.221024 	820.411
0.223422 	801.939
0.22582 	784.052
0.228218 	766.726
0.230616 	749.938
0.233014 	733.665
0.235412 	717.887
0.23781 	702.584
0.240208 	687.736
0.242606 	673.327
0.245004 	659.339
0.247402 	645.756
0.2498 	632.562
0.252198 	619.742
0.254596 	607.283
0.256994 	595.172
0.259392 	583.394
0.26179 	571.939
0.264188 	560.794
0.266586 	549.948
0.268984 	539.392
0.271382 	529.113
0.27378 	519.104
0.276178 	509.355
0.278576 	499.856
0.280974 	490.599
0.283372 	481.576
0.28577 	472.779
0.288168 	464.201
0.290566 	455.835
0.292964 	447.673
0.295362 	439.709
0.29776 	431.937
0.300158 	424.35
0.302556 	416.943
0.304954 	409.71
0.307352 	402.646
0.30975 	395.745
0.312148 	389.002
0.314546 	382.413
0.316944 	375.973
0.319342 	369.678
0.32174 	363.523
0.324138 	357.503
0.326536 	351.616
0.328934 	345.858
0.331332 	340.224
0.33373 	334.711
0.336128 	329.315
0.338526 	324.034
0.340924 	318.863
0.343322 	313.801
0.34572 	308.844
0.348118 	303.989
0.350516 	299.233
0.352914 	294.573
0.355312 	290.008
0.35771 	285.534
0.360108 	281.149
0.362506 	276.851
0.364904 	272.638
0.367302 	268.507
0.3697 	264.455
0.372098 	260.482
0.374496 	256.585
0.376894 	252.762
0.379292 	249.012
0.38169 	245.332
0.384088 	241.72
0.386486 	238.176
0.388884 	234.697
0.391282 	231.281
0.39368 	227.928
0.396078 	224.636
0.398476 	221.403
0.400874 	218.228
0.403272 	215.109
0.40567 	212.045
0.408068 	209.035
0.410466 	206.078
0.412864 	203.172
0.415262 	200.317
0.41766 	197.51
0.420058 	194.752
0.422456 	192.04
0.424854 	189.374
0.427252 	186.752
0.42965 	184.175
0.432048 	181.64
0.434446 	179.147
0.436844 	176.696
0.439242 	174.284
0.44164 	171.911
0.444038 	169.577
0.446436 	167.28
0.448834 	165.02
0.451232 	162.795
0.45363 	160.606
0.456028 	158.452
0.458426 	156.331
0.460824 	154.243
0.463222 	152.188
0.46562 	150.164
0.468018 	148.171
0.470416 	146.209
0.472814 	144.276
0.475212 	142.373
0.47761 	140.498
0.480008 	138.651
0.482406 	136.832
0.484804 	135.039
0.487202 	133.273
0.4896 	131.533
0.491998 	129.819
0.494396 	128.129
0.496794 	126.463
0.499192 	124.822
0.50159 	123.204
0.503988 	121.609
0.506386 	120.037
0.508784 	118.486
0.511182 	116.958
0.51358 	115.451
0.515978 	113.965
0.518376 	112.499
0.520774 	111.054
0.523172 	109.629
0.52557 	108.223
0.527968 	106.836
0.530366 	105.468
0.532764 	104.118
0.535162 	102.786
0.53756 	101.472
0.539958 	100.176
0.542356 	98.8969
0.544754 	97.6346
0.547152 	96.3888
0.54955 	95.1593
0.551948 	93.9458
0.554346 	92.748
0.556744 	91.5656
0.559142 	90.3984
0.56154 	89.2462
0.563938 	88.1086
0.566336 	86.9854
0.568734 	85.8764
0.571132 	84.7814
0.57353 	83.7001
0.575928 	82.6322
0.578326 	81.5776
0.580724 	80.536
0.583122 	79.5073
0.58552 	78.4911
0.587918 	77.4874
0.590316 	76.4959
0.592714 	75.5164
0.595112 	74.5487
0.59751 	73.5927
0.599908 	72.648
0.602306 	71.7147
0.604704 	70.7924
0.607102 	69.881
0.6095 	68.9804
0.611898 	68.0904
0.614296 	67.2107
0.616694 	66.3413
0.619092 	65.482
0.62149 	64.6326
0.623888 	63.7929
0.626286 	62.9629
0.628684 	62.1424
0.631082 	61.3312
0.63348 	60.5292
0.635878 	59.7363
0.638276 	58.9523
0.640674 	58.1771
0.643072 	57.4105
0.64547 	56.6525
0.647868 	55.9028
0.650266 	55.1615
0.652664 	54.4283
0.655062 	53.7031
0.65746 	52.9859
0.659858 	52.2765
0.662256 	51.5747
0.664654 	50.8806
0.667052 	50.1939
0.66945 	49.5146
0.671848 	48.8425
0.674246 	48.1776
0.676644 	47.5198
0.679042 	46.8689
0.68144 	46.2249
0.683838 	45.5876
0.686236 	44.957
0.688634 	44.333
0.691032 	43.7155
0.69343 	43.1044
0.695828 	42.4996
0.698226 	41.901
0.700624 	41.3085
0.703022 	40.7221
0.70542 	40.1417
0.707818 	39.5671
0.710216 	38.9984
0.712614 	38.4354
0.715012 	37.878
0.71741 	37.3263
0.719808 	36.78
0.722206 	36.2392
0.724604 	35.7037
0.727002 	35.1736
0.7294 	34.6486
0.731798 	34.1288
0.734196 	33.6141
0.736594 	33.1044
0.738992 	32.5997
0.74139 	32.0999
0.743788 	31.6049
0.746186 	31.1146
0.748584 	30.6291
0.750982 	30.1482
0.75338 	29.6719
0.755778 	29.2001
0.758176 	28.7328
0.760574 	28.2699
0.762972 	27.8113
0.76537 	27.3571
0.767768 	26.9071
0.770166 	26.4613
0.772564 	26.0197
0.774962 	25.5821
0.77736 	25.1486
0.779758 	24.7191
0.782156 	24.2936
0.784554 	23.8719
0.786952 	23.4541
0.78935 	23.0401
0.791748 	22.6299
0.794146 	22.2233
0.796544 	21.8205
0.798942 	21.4212
0.80134 	21.0255
0.803738 	20.6334
0.806136 	20.2448
0.808534 	19.8596
0.810932 	19.4779
0.81333 	19.0995
0.815728 	18.7244
0.818126 	18.3527
0.820524 	17.9841
0.822922 	17.6189
0.82532 	17.2568
0.827718 	16.8978
0.830116 	16.542
0.832514 	16.1892
0.834912 	15.8394
0.83731 	15.4927
0.839708 	15.1489
0.842106 	14.8081
0.844504 	14.4702
0.846902 	14.1351
0.8493 	13.8029
0.851698 	13.4734
0.854096 	13.1468
0.856494 	12.8229
0.858892 	12.5017
0.86129 	12.1832
0.863688 	11.8673
0.866086 	11.5541
0.868484 	11.2434
0.870882 	10.9353
0.87328 	10.6298
0.875678 	10.3267
0.878076 	10.0262
0.880474 	9.72806
0.882872 	9.43239
0.88527 	9.13911
0.887668 	8.84822
0.890066 	8.55967
0.892464 	8.27345
0.894862 	7.98952
0.89726 	7.70788
0.899658 	7.42848
0.902056 	7.15131
0.904454 	6.87635
0.906852 	6.60357
0.90925 	6.33294
0.911648 	6.06445
0.914046 	5.79807
0.916444 	5.53379
0.918842 	5.27157
0.92124 	5.0114
0.923638 	4.75326
0.926036 	4.49712
0.928434 	4.24297
0.930832 	3.99078
0.93323 	3.74053
0.935628 	3.49221
0.938026 	3.2458
0.940424 	3.00127
0.942822 	2.7586
0.94522 	2.51778
0.947618 	2.27879
0.950016 	2.04162
0.952414 	1.80623
0.954812 	1.57262
0.95721 	1.34076
0.959608 	1.11064
0.962006 	0.882247
0.964404 	0.655555
0.966802 	0.430551
0.9692 	0.207218
0.971598 	-0.0144604
0.973996 	-0.234501
0.976394 	-0.452919
0.978792 	-0.669731
0.98119 	-0.884952
0.983588 	-1.0986
0.985986 	-1.31068
0.988384 	-1.52123
0.990782 	-1.73024
0.99318 	-1.93773
0.995578 	-2.14373
0.997976 	-2.34824
1.00037 	-2.55128
1.00277 	-2.75286
1.00517 	-2.95299
1.00757 	-3.1517
1.00997 	-3.34898
1.01236 	-3.54487
1.01476 	-3.73936
1.01716 	-3.93248
1.01956 	-4.12423
1.02196 	-4.31463
1.02435 	-4.5037
1.02675 	-4.69143
1.02915 	-4.87785
1.03155 	-5.06297
1.03395 	-5.2468
1.03634 	-5.42935
1.03874 	-5.61064
1.04114 	-5.79067
1.04354 	-5.96946
1.04594 	-6.14701
1.04833 	-6.32335
1.05073 	-6.49848
1.05313 	-6.6724
1.05553 	-6.84514
1.05793 	-7.01671
1.06032 	-7.1871
1.06272 	-7.35634
1.06512 	-7.52444
1.06752 	-7.6914
1.06992 	-7.85724
1.07231 	-8.02196
1.07471 	-8.18557
1.07711 	-8.34809
1.07951 	-8.50952
1.08191 	-8.66988
1.0843 	-8.82917
1.0867 	-8.98741
1.0891 	-9.14459
1.0915 	-9.30074
1.0939 	-9.45586
1.09629 	-9.60996
1.09869 	-9.76304
1.10109 	-9.91513
1.10349 	-10.0662
1.10589 	-10.2163
1.10828 	-10.3654
1.11068 	-10.5136
1.11308 	-10.6608
1.11548 	-10.807
1.11788 	-10.9523
1.12027 	-11.0967
1.12267 	-11.2401
1.12507 	-11.3826
1.12747 	-11.5242
1.12987 	-11.6649
1.13226 	-11.8047
1.13466 	-11.9437
1.13706 	-12.0817
1.13946 	-12.2188
1.14186 	-12.3551
1.14425 	-12.4905
1.14665 	-12.6251
1.14905 	-12.7588
1.15145 	-12.8917
1.15385 	-13.0238
1.15624 	-13.155
1.15864 	-13.2854
1.16104 	-13.415
1.16344 	-13.5438
1.16584 	-13.6718
1.16823 	-13.799
1.17063 	-13.9254
1.17303 	-14.0511
1.17543 	-14.1759
1.17783 	-14.3
1.18022 	-14.4234
1.18262 	-14.546
1.18502 	-14.6678
1.18742 	-14.7889
1.18982 	-14.9092
1.19221 	-15.0289
1.19461 	-15.1478
1.19701 	-15.266
1.19941 	-15.3834
1.20181 	-15.5002
1.2042 	-15.6162
1.2066 	-15.7316
1.209 	-15.8463
1.2114 	-15.9603
1.2138 	-16.0736
1.21619 	-16.1862
1.21859 	-16.2982
1.22099 	-16.4095
1.22339 	-16.5201
1.22579 	-16.6301
1.22818 	-16.7395
1.23058 	-16.8482
1.23298 	-16.9562
1.23538 	-17.0636
1.23778 	-17.1704
1.24017 	-17.2766
1.24257 	-17.3821
1.24497 	-17.4871
1.24737 	-17.5914
1.24977 	-17.6951
1.25216 	-17.7982
1.25456 	-17.9008
1.25696 	-18.0027
1.25936 	-18.104
1.26176 	-18.2048
1.26415 	-18.305
1.26655 	-18.4046
1.26895 	-18.5036
1.27135 	-18.6021
1.27375 	-18.7
1.27614 	-18.7974
1.27854 	-18.8942
1.28094 	-18.9904
1.28334 	-19.0861
1.28574 	-19.1813
1.28813 	-19.2759
1.29053 	-19.37
1.29293 	-19.4636
1.29533 	-19.5566
1.29773 	-19.6491
1.30012 	-19.7411
1.30252 	-19.8326
1.30492 	-19.9236
1.30732 	-20.0141
1.30972 	-20.104
1.31211 	-20.1935
1.31451 	-20.2825
1.31691 	-20.371
1.31931 	-20.459
1.32171 	-20.5465
1.3241 	-20.6335
1.3265 	-20.7201
1.3289 	-20.8061
1.3313 	-20.8917
1.3337 	-20.9769
1.33609 	-21.0615
1.33849 	-21.1458
1.34089 	-21.2295
1.34329 	-21.3128
1.34569 	-21.3957
1.34808 	-21.4781
1.35048 	-21.56
1.35288 	-21.6415
1.35528 	-21.7226
1.35768 	-21.8032
1.36007 	-21.8834
1.36247 	-21.9632
1.36487 	-22.0425
1.36727 	-22.1215
1.36967 	-22.2
1.37206 	-22.2781
1.37446 	-22.3557
1.37686 	-22.433
1.37926 	-22.5098
1.38166 	-22.5863
1.38405 	-22.6623
1.38645 	-22.7379
1.38885 	-22.8132
1.39125 	-22.888
1.39365 	-22.9624
1.39604 	-23.0365
1.39844 	-23.1102
1.40084 	-23.1834
1.40324 	-23.2563
1.40564 	-23.3289
1.40803 	-23.401
1.41043 	-23.4728
1.41283 	-23.5442
1.41523 	-23.6152
1.41763 	-23.6858
1.42002 	-23.7561
1.42242 	-23.8261
1.42482 	-23.8956
1.42722 	-23.9648
1.42962 	-24.0337
1.43201 	-24.1022
1.43441 	-24.1703
1.43681 	-24.2381
1.43921 	-24.3056
1.44161 	-24.3727
1.444 	-24.4395
1.4464 	-24.5059
1.4488 	-24.572
1.4512 	-24.6377
1.4536 	-24.7031
1.45599 	-24.7682
1.45839 	-24.833
1.46079 	-24.8974
1.46319 	-24.9615
1.46559 	-25.0253
1.46798 	-25.0888
1.47038 	-25.1519
1.47278 	-25.2148
1.47518 	-25.2773
1.47758 	-25.3395
1.47997 	-25.4014
1.48237 	-25.463
1.48477 	-25.5242
1.48717 	-25.5852
1.48957 	-25.6459
1.49196 	-25.7062
1.49436 	-25.7663
1.49676 	-25.8261
1.49916 	-25.8856
1.50156 	-25.9447
1.50395 	-26.0036
1.50635 	-26.0622
1.50875 	-26.1205
1.51115 	-26.1786
1.51355 	-26.2363
1.51594 	-26.2938
1.51834 	-26.3509
1.52074 	-26.4078
1.52314 	-26.4645
1.52554 	-26.5208
1.52793 	-26.5769
1.53033 	-26.6327
1.53273 	-26.6882
1.53513 	-26.7434
1.53753 	-26.7984
1.53992 	-26.8532
1.54232 	-26.9076
1.54472 	-26.9618
1.54712 	-27.0157
1.54952 	-27.0694
1.55191 	-27.1228
1.55431 	-27.176
1.55671 	-27.2289
1.55911 	-27.2815
1.56151 	-27.3339
1.5639 	-27.3861
1.5663 	-27.438
1.5687 	-27.4896
1.5711 	-27.541
1.5735 	-27.5922
1.57589 	-27.6431
1.57829 	-27.6938
1.58069 	-27.7442
1.58309 	-27.7944
1.58549 	-27.8444
1.58788 	-27.8941
1.59028 	-27.9436
1.59268 	-27.9928
1.59508 	-28.0418
1.59748 	-28.0906
1.59987 	-28.1392
1.60227 	-28.1875
1.60467 	-28.2356
1.60707 	-28.2835
1.60947 	-28.3311
1.61186 	-28.3786
1.61426 	-28.4258
1.61666 	-28.4728
1.61906 	-28.5195
1.62146 	-28.5661
1.62385 	-28.6124
1.62625 	-28.6585
1.62865 	-28.7044
1.63105 	-28.7501
1.63345 	-28.7956
1.63584 	-28.8408
1.63824 	-28.8859
1.64064 	-28.9307
1.64304 	-28.9754
1.64544 	-29.0198
1.64783 	-29.064
1.65023 	-29.1081
1.65263 	-29.1519
1.65503 	-29.1955
1.65743 	-29.2389
1.65982 	-29.2821
1.66222 	-29.3251
1.66462 	-29.368
1.66702 	-29.4106
1.66942 	-29.453
1.67181 	-29.4953
1.67421 	-29.5373
1.67661 	-29.5791
1.67901 	-29.6208
1.68141 	-29.6623
1.6838 	-29.7035
1.6862 	-29.7446
1.6886 	-29.7855
1.691 	-29.8263
1.6934 	-29.8668
1.69579 	-29.9071
1.69819 	-29.9473
1.70059 	-29.9873
1.70299 	-30.0271
1.70539 	-30.0667
1.70778 	-30.1062
1.71018 	-30.1454
1.71258 	-30.1845
1.71498 	-30.2234
1.71738 	-30.2621
1.71977 	-30.3007
1.72217 	-30.3391
1.72457 	-30.3773
1.72697 	-30.4153
1.72937 	-30.4532
1.73176 	-30.4909
1.73416 	-30.5284
1.73656 	-30.5658
1.73896 	-30.603
1.74136 	-30.64
1.74375 	-30.6769
1.74615 	-30.7136
1.74855 	-30.7501
1.75095 	-30.7865
1.75335 	-30.8227
1.75574 	-30.8587
1.75814 	-30.8946
1.76054 	-30.9303
1.76294 	-30.9659
1.76534 	-31.0013
1.76773 	-31.0365
1.77013 	-31.0716
1.77253 	-31.1066
1.77493 	-31.1413
1.77733 	-31.176
1.77972 	-31.2104
1.78212 	-31.2447
1.78452 	-31.2789
1.78692 	-31.3129
1.78932 	-31.3468
1.79171 	-31.3805
1.79411 	-31.4141
1.79651 	-31.4475
1.79891 	-31.4807
1.80131 	-31.5138
1.8037 	-31.5468
1.8061 	-31.5796
1.8085 	-31.6123
1.8109 	-31.6449
1.8133 	-31.6772
1.81569 	-31.7095
1.81809 	-31.7416
1.82049 	-31.7736
1.82289 	-31.8054
1.82529 	-31.8371
1.82768 	-31.8686
1.83008 	-31.9
1.83248 	-31.9313
1.83488 	-31.9624
1.83728 	-31.9934
1.83967 	-32.0242
1.84207 	-32.055
1.84447 	-32.0855
1.84687 	-32.116
1.84927 	-32.1463
1.85166 	-32.1765
1.85406 	-32.2065
1.85646 	-32.2364
1.85886 	-32.2662
1.86126 	-32.2959
1.86365 	-32.3254
1.86605 	-32.3548
1.86845 	-32.384
1.87085 	-32.4132
1.87325 	-32.4422
1.87564 	-32.4711
1.87804 	-32.4998
1.88044 	-32.5284
1.88284 	-32.5569
1.88524 	-32.5853
1.88763 	-32.6135
1.89003 	-32.6417
1.89243 	-32.6697
1.89483 	-32.6976
1.89723 	-32.7253
1.89962 	-32.7529
1.90202 	-32.7805
1.90442 	-32.8078
1.90682 	-32.8351
1.90922 	-32.8623
1.91161 	-32.8893
1.91401 	-32.9162
1.91641 	-32.943
1.91881 	-32.9697
1.92121 	-32.9962
1.9236 	-33.0227
1.926 	-33.049
1.9284 	-33.0752
1.9308 	-33.1013
1.9332 	-33.1273
1.93559 	-33.1531
1.93799 	-33.1789
1.94039 	-33.2045
1.94279 	-33.2301
1.94519 	-33.2555
1.94758 	-33.2808
1.94998 	-33.306
1.95238 	-33.331
1.95478 	-33.356
1.95718 	-33.3809
1.95957 	-33.4056
1.96197 	-33.4303
1.96437 	-33.4548
1.96677 	-33.4792
1.96917 	-33.5035
1.97156 	-33.5277
1.97396 	-33.5518
1.97636 	-33.5758
1.97876 	-33.5997
1.98116 	-33.6235
1.98355 	-33.6471
1.98595 	-33.6707
1.98835 	-33.6942
1.99075 	-33.7175
1.99315 	-33.7408
1.99554 	-33.764
1.99794 	-33.787
2.00034 	-33.81
2.00274 	-33.8328
2.00514 	-33.8555
2.00753 	-33.8782
2.00993 	-33.9007
2.01233 	-33.9232
2.01473 	-33.9455
2.01713 	-33.9677
2.01952 	-33.9899
2.02192 	-34.0119
2.02432 	-34.0339
2.02672 	-34.0557
2.02912 	-34.0775
2.03151 	-34.0991
2.03391 	-34.1207
2.03631 	-34.1421
2.03871 	-34.1635
2.04111 	-34.1848
2.0435 	-34.2059
2.0459 	-34.227
2.0483 	-34.248
2.0507 	-34.2689
2.0531 	-34.2896
2.05549 	-34.3103
2.05789 	-34.3309
2.06029 	-34.3515
2.06269 	-34.3719
2.06509 	-34.3922
2.06748 	-34.4124
2.06988 	-34.4326
2.07228 	-34.4526
2.07468 	-34.4726
2.07708 	-34.4924
2.07947 	-34.5122
2.08187 	-34.5319
2.08427 	-34.5515
2.08667 	-34.571
2.08907 	-34.5904
2.09146 	-34.6097
2.09386 	-34.629
2.09626 	-34.6481
2.09866 	-34.6672
2.10106 	-34.6861
2.10345 	-34.705
2.10585 	-34.7238
2.10825 	-34.7425
2.11065 	-34.7611
2.11305 	-34.7797
2.11544 	-34.7981
2.11784 	-34.8165
2.12024 	-34.8348
2.12264 	-34.853
2.12504 	-34.8711
2.12743 	-34.8891
2.12983 	-34.907
2.13223 	-34.9249
2.13463 	-34.9427
2.13703 	-34.9603
2.13942 	-34.9779
2.14182 	-34.9955
2.14422 	-35.0129
2.14662 	-35.0303
2.14902 	-35.0475
2.15141 	-35.0647
2.15381 	-35.0818
2.15621 	-35.0989
2.15861 	-35.1158
2.16101 	-35.1327
2.1634 	-35.1494
2.1658 	-35.1661
2.1682 	-35.1828
2.1706 	-35.1993
2.173 	-35.2158
2.17539 	-35.2322
2.17779 	-35.2485
2.18019 	-35.2647
2.18259 	-35.2808
2.18499 	-35.2969
2.18738 	-35.3129
2.18978 	-35.3288
2.19218 	-35.3446
2.19458 	-35.3604
2.19698 	-35.3761
2.19937 	-35.3917
2.20177 	-35.4072
2.20417 	-35.4226
2.20657 	-35.438
2.20897 	-35.4533
2.21136 	-35.4685
2.21376 	-35.4837
2.21616 	-35.4987
2.21856 	-35.5137
2.22096 	-35.5286
2.22335 	-35.5435
2.22575 	-35.5582
2.22815 	-35.5729
2.23055 	-35.5875
2.23295 	-35.6021
2.23534 	-35.6166
2.23774 	-35.631
2.24014 	-35.6453
2.24254 	-35.6595
2.24494 	-35.6737
2.24733 	-35.6878
2.24973 	-35.7018
2.25213 	-35.7158
2.25453 	-35.7297
2.25693 	-35.7435
2.25932 	-35.7572
2.26172 	-35.7709
2.26412 	-35.7845
2.26652 	-35.798
2.26892 	-35.8114
2.27131 	-35.8248
2.27371 	-35.8381
2.27611 	-35.8514
2.27851 	-35.8645
2.28091 	-35.8776
2.2833 	-35.8906
2.2857 	-35.9036
2.2881 	-35.9165
2.2905 	-35.9293
2.2929 	-35.9421
2.29529 	-35.9547
2.29769 	-35.9673
2.30009 	-35.9799
2.30249 	-35.9923
2.30489 	-36.0047
2.30728 	-36.0171
2.30968 	-36.0293
2.31208 	-36.0415
2.31448 	-36.0537
2.31688 	-36.0657
2.31927 	-36.0777
2.32167 	-36.0896
2.32407 	-36.1015
2.32647 	-36.1133
2.32887 	-36.125
2.33126 	-36.1367
2.33366 	-36.1482
2.33606 	-36.1598
2.33846 	-36.1712
2.34086 	-36.1826
2.34325 	-36.1939
2.34565 	-36.2052
2.34805 	-36.2164
2.35045 	-36.2275
2.35285 	-36.2385
2.35524 	-36.2495
2.35764 	-36.2605
2.36004 	-36.2713
2.36244 	-36.2821
2.36484 	-36.2928
2.36723 	-36.3035
2.36963 	-36.3141
2.37203 	-36.3246
2.37443 	-36.3351
2.37683 	-36.3455
2.37922 	-36.3558
2.38162 	-36.3661
2.38402 	-36.3763
2.38642 	-36.3865
2.38882 	-36.3966
2.39121 	-36.4066
2.39361 	-36.4165
2.39601 	-36.4264
2.39841 	-36.4363
2.40081 	-36.446
2.4032 	-36.4557
2.4056 	-36.4654
2.408 	-36.4749
2.4104 	-36.4845
2.4128 	-36.4939
2.41519 	-36.5033
2.41759 	-36.5126
2.41999 	-36.5219
2.42239 	-36.5311
2.42479 	-36.5402
2.42718 	-36.5493
2.42958 	-36.5583
2.43198 	-36.5673
2.43438 	-36.5762
2.43678 	-36.585
2.43917 	-36.5938
2.44157 	-36.6025
2.44397 	-36.6111
2.44637 	-36.6197
2.44877 	-36.6282
2.45116 	-36.6367
2.45356 	-36.6451
2.45596 	-36.6534
2.45836 	-36.6617
2.46076 	-36.6699
2.46315 	-36.6781
2.46555 	-36.6862
2.46795 	-36.6942
2.47035 	-36.7022
2.47275 	-36.7101
2.47514 	-36.7179
2.47754 	-36.7257
2.47994 	-36.7335
2.48234 	-36.7411
2.48474 	-36.7488
2.48713 	-36.7563
2.48953 	-36.7638
2.49193 	-36.7713
2.49433 	-36.7786
2.49673 	-36.7859
2.49912 	-36.7932
2.50152 	-36.8004
2.50392 	-36.8075
2.50632 	-36.8146
2.50872 	-36.8216
2.51111 	-36.8286
2.51351 	-36.8355
2.51591 	-36.8423
2.51831 	-36.8491
2.52071 	-36.8559
2.5231 	-36.8625
2.5255 	-36.8691
2.5279 	-36.8757
2.5303 	-36.8822
2.5327 	-36.8886
2.53509 	-36.895
2.53749 	-36.9013
2.53989 	-36.9076
2.54229 	-36.9138
2.54469 	-36.9199
2.54708 	-36.926
2.54948 	-36.932
2.55188 	-36.938
2.55428 	-36.9439
2.55668 	-36.9498
2.55907 	-36.9556
2.56147 	-36.9613
2.56387 	-36.967
2.56627 	-36.9726
2.56867 	-36.9782
2.57106 	-36.9837
2.57346 	-36.9891
2.57586 	-36.9945
2.57826 	-36.9999
2.58066 	-37.0051
2.58305 	-37.0104
2.58545 	-37.0155
2.58785 	-37.0206
2.59025 	-37.0257
2.59265 	-37.0307
2.59504 	-37.0356
2.59744 	-37.0405
2.59984 	-37.0453
2.60224 	-37.0501
2.60464 	-37.0548
2.60703 	-37.0595
2.60943 	-37.0641
2.61183 	-37.0686
2.61423 	-37.0731
2.61663 	-37.0775
2.61902 	-37.0819
2.62142 	-37.0862
2.62382 	-37.0905
2.62622 	-37.0947
2.62862 	-37.0988
2.63101 	-37.1029
2.63341 	-37.1069
2.63581 	-37.1109
2.63821 	-37.1148
2.64061 	-37.1187
2.643 	-37.1225
2.6454 	-37.1263
2.6478 	-37.13
2.6502 	-37.1336
2.6526 	-37.1372
2.65499 	-37.1407
2.65739 	-37.1442
2.65979 	-37.1476
2.66219 	-37.151
2.66459 	-37.1543
2.66698 	-37.1575
2.66938 	-37.1607
2.67178 	-37.1639
2.67418 	-37.1669
2.67658 	-37.17
