# Mass = 0.0452189 Mev*(hbarc)^2/2 
# R = 3.175 fm 
# a = 0.662 fm 
# V0 = 58.2974 MeV 
# RSO = 2.92302 fm 
# aSO = 0.662 fm 
# VSO = 31.5165 MeV fm^2
# l = 0 
# two_j = 1 
# two_t = -1 
# Energy = -36.2119 MeV
# r 	 V_eff [2m/hbar/hbar]
0.01 	-57.8125
0.012398 	-57.8108
0.014796 	-57.809
0.017194 	-57.8073
0.019592 	-57.8055
0.02199 	-57.8037
0.024388 	-57.802
0.026786 	-57.8002
0.029184 	-57.7984
0.031582 	-57.7966
0.03398 	-57.7948
0.036378 	-57.793
0.038776 	-57.7912
0.041174 	-57.7893
0.043572 	-57.7875
0.04597 	-57.7857
0.048368 	-57.7838
0.050766 	-57.782
0.053164 	-57.7801
0.055562 	-57.7783
0.05796 	-57.7764
0.060358 	-57.7745
0.062756 	-57.7727
0.065154 	-57.7708
0.067552 	-57.7689
0.06995 	-57.767
0.072348 	-57.7651
0.074746 	-57.7631
0.077144 	-57.7612
0.079542 	-57.7593
0.08194 	-57.7574
0.084338 	-57.7554
0.086736 	-57.7535
0.089134 	-57.7515
0.091532 	-57.7496
0.09393 	-57.7476
0.096328 	-57.7456
0.098726 	-57.7436
0.101124 	-57.7416
0.103522 	-57.7396
0.10592 	-57.7376
0.108318 	-57.7356
0.110716 	-57.7336
0.113114 	-57.7316
0.115512 	-57.7295
0.11791 	-57.7275
0.120308 	-57.7255
0.122706 	-57.7234
0.125104 	-57.7213
0.127502 	-57.7193
0.1299 	-57.7172
0.132298 	-57.7151
0.134696 	-57.713
0.137094 	-57.7109
0.139492 	-57.7088
0.14189 	-57.7067
0.144288 	-57.7046
0.146686 	-57.7024
0.149084 	-57.7003
0.151482 	-57.6982
0.15388 	-57.696
0.156278 	-57.6938
0.158676 	-57.6917
0.161074 	-57.6895
0.163472 	-57.6873
0.16587 	-57.6851
0.168268 	-57.6829
0.170666 	-57.6807
0.173064 	-57.6785
0.175462 	-57.6763
0.17786 	-57.6741
0.180258 	-57.6718
0.182656 	-57.6696
0.185054 	-57.6673
0.187452 	-57.6651
0.18985 	-57.6628
0.192248 	-57.6605
0.194646 	-57.6582
0.197044 	-57.6559
0.199442 	-57.6536
0.20184 	-57.6513
0.204238 	-57.649
0.206636 	-57.6467
0.209034 	-57.6443
0.211432 	-57.642
0.21383 	-57.6396
0.216228 	-57.6373
0.218626 	-57.6349
0.221024 	-57.6325
0.223422 	-57.6302
0.22582 	-57.6278
0.228218 	-57.6254
0.230616 	-57.6229
0.233014 	-57.6205
0.235412 	-57.6181
0.23781 	-57.6157
0.240208 	-57.6132
0.242606 	-57.6108
0.245004 	-57.6083
0.247402 	-57.6058
0.2498 	-57.6033
0.252198 	-57.6009
0.254596 	-57.5984
0.256994 	-57.5959
0.259392 	-57.5933
0.26179 	-57.5908
0.264188 	-57.5883
0.266586 	-57.5857
0.268984 	-57.5832
0.271382 	-57.5806
0.27378 	-57.5781
0.276178 	-57.5755
0.278576 	-57.5729
0.280974 	-57.5703
0.283372 	-57.5677
0.28577 	-57.5651
0.288168 	-57.5625
0.290566 	-57.5598
0.292964 	-57.5572
0.295362 	-57.5545
0.29776 	-57.5519
0.300158 	-57.5492
0.302556 	-57.5465
0.304954 	-57.5438
0.307352 	-57.5411
0.30975 	-57.5384
0.312148 	-57.5357
0.314546 	-57.533
0.316944 	-57.5302
0.319342 	-57.5275
0.32174 	-57.5247
0.324138 	-57.522
0.326536 	-57.5192
0.328934 	-57.5164
0.331332 	-57.5136
0.33373 	-57.5108
0.336128 	-57.508
0.338526 	-57.5052
0.340924 	-57.5023
0.343322 	-57.4995
0.34572 	-57.4966
0.348118 	-57.4937
0.350516 	-57.4909
0.352914 	-57.488
0.355312 	-57.4851
0.35771 	-57.4822
0.360108 	-57.4793
0.362506 	-57.4763
0.364904 	-57.4734
0.367302 	-57.4705
0.3697 	-57.4675
0.372098 	-57.4645
0.374496 	-57.4615
0.376894 	-57.4586
0.379292 	-57.4556
0.38169 	-57.4525
0.384088 	-57.4495
0.386486 	-57.4465
0.388884 	-57.4434
0.391282 	-57.4404
0.39368 	-57.4373
0.396078 	-57.4343
0.398476 	-57.4312
0.400874 	-57.4281
0.403272 	-57.425
0.40567 	-57.4218
0.408068 	-57.4187
0.410466 	-57.4156
0.412864 	-57.4124
0.415262 	-57.4093
0.41766 	-57.4061
0.420058 	-57.4029
0.422456 	-57.3997
0.424854 	-57.3965
0.427252 	-57.3933
0.42965 	-57.3901
0.432048 	-57.3868
0.434446 	-57.3836
0.436844 	-57.3803
0.439242 	-57.377
0.44164 	-57.3737
0.444038 	-57.3704
0.446436 	-57.3671
0.448834 	-57.3638
0.451232 	-57.3605
0.45363 	-57.3571
0.456028 	-57.3538
0.458426 	-57.3504
0.460824 	-57.347
0.463222 	-57.3436
0.46562 	-57.3402
0.468018 	-57.3368
0.470416 	-57.3334
0.472814 	-57.3299
0.475212 	-57.3265
0.47761 	-57.323
0.480008 	-57.3195
0.482406 	-57.316
0.484804 	-57.3125
0.487202 	-57.309
0.4896 	-57.3055
0.491998 	-57.302
0.494396 	-57.2984
0.496794 	-57.2949
0.499192 	-57.2913
0.50159 	-57.2877
0.503988 	-57.2841
0.506386 	-57.2805
0.508784 	-57.2769
0.511182 	-57.2732
0.51358 	-57.2696
0.515978 	-57.2659
0.518376 	-57.2622
0.520774 	-57.2585
0.523172 	-57.2548
0.52557 	-57.2511
0.527968 	-57.2474
0.530366 	-57.2436
0.532764 	-57.2399
0.535162 	-57.2361
0.53756 	-57.2323
0.539958 	-57.2285
0.542356 	-57.2247
0.544754 	-57.2209
0.547152 	-57.2171
0.54955 	-57.2132
0.551948 	-57.2094
0.554346 	-57.2055
0.556744 	-57.2016
0.559142 	-57.1977
0.56154 	-57.1938
0.563938 	-57.1899
0.566336 	-57.1859
0.568734 	-57.182
0.571132 	-57.178
0.57353 	-57.174
0.575928 	-57.17
0.578326 	-57.166
0.580724 	-57.162
0.583122 	-57.1579
0.58552 	-57.1539
0.587918 	-57.1498
0.590316 	-57.1457
0.592714 	-57.1416
0.595112 	-57.1375
0.59751 	-57.1334
0.599908 	-57.1293
0.602306 	-57.1251
0.604704 	-57.1209
0.607102 	-57.1168
0.6095 	-57.1126
0.611898 	-57.1083
0.614296 	-57.1041
0.616694 	-57.0999
0.619092 	-57.0956
0.62149 	-57.0913
0.623888 	-57.0871
0.626286 	-57.0828
0.628684 	-57.0784
0.631082 	-57.0741
0.63348 	-57.0698
0.635878 	-57.0654
0.638276 	-57.061
0.640674 	-57.0566
0.643072 	-57.0522
0.64547 	-57.0478
0.647868 	-57.0434
0.650266 	-57.0389
0.652664 	-57.0345
0.655062 	-57.03
0.65746 	-57.0255
0.659858 	-57.021
0.662256 	-57.0164
0.664654 	-57.0119
0.667052 	-57.0073
0.66945 	-57.0027
0.671848 	-56.9981
0.674246 	-56.9935
0.676644 	-56.9889
0.679042 	-56.9843
0.68144 	-56.9796
0.683838 	-56.9749
0.686236 	-56.9702
0.688634 	-56.9655
0.691032 	-56.9608
0.69343 	-56.9561
0.695828 	-56.9513
0.698226 	-56.9466
0.700624 	-56.9418
0.703022 	-56.937
0.70542 	-56.9321
0.707818 	-56.9273
0.710216 	-56.9224
0.712614 	-56.9176
0.715012 	-56.9127
0.71741 	-56.9078
0.719808 	-56.9029
0.722206 	-56.8979
0.724604 	-56.893
0.727002 	-56.888
0.7294 	-56.883
0.731798 	-56.878
0.734196 	-56.873
0.736594 	-56.8679
0.738992 	-56.8629
0.74139 	-56.8578
0.743788 	-56.8527
0.746186 	-56.8476
0.748584 	-56.8424
0.750982 	-56.8373
0.75338 	-56.8321
0.755778 	-56.8269
0.758176 	-56.8217
0.760574 	-56.8165
0.762972 	-56.8113
0.76537 	-56.806
0.767768 	-56.8008
0.770166 	-56.7955
0.772564 	-56.7902
0.774962 	-56.7848
0.77736 	-56.7795
0.779758 	-56.7741
0.782156 	-56.7687
0.784554 	-56.7633
0.786952 	-56.7579
0.78935 	-56.7525
0.791748 	-56.747
0.794146 	-56.7415
0.796544 	-56.7361
0.798942 	-56.7305
0.80134 	-56.725
0.803738 	-56.7195
0.806136 	-56.7139
0.808534 	-56.7083
0.810932 	-56.7027
0.81333 	-56.6971
0.815728 	-56.6914
0.818126 	-56.6857
0.820524 	-56.6801
0.822922 	-56.6743
0.82532 	-56.6686
0.827718 	-56.6629
0.830116 	-56.6571
0.832514 	-56.6513
0.834912 	-56.6455
0.83731 	-56.6397
0.839708 	-56.6339
0.842106 	-56.628
0.844504 	-56.6221
0.846902 	-56.6162
0.8493 	-56.6103
0.851698 	-56.6043
0.854096 	-56.5984
0.856494 	-56.5924
0.858892 	-56.5864
0.86129 	-56.5804
0.863688 	-56.5743
0.866086 	-56.5682
0.868484 	-56.5621
0.870882 	-56.556
0.87328 	-56.5499
0.875678 	-56.5438
0.878076 	-56.5376
0.880474 	-56.5314
0.882872 	-56.5252
0.88527 	-56.5189
0.887668 	-56.5127
0.890066 	-56.5064
0.892464 	-56.5001
0.894862 	-56.4938
0.89726 	-56.4874
0.899658 	-56.4811
0.902056 	-56.4747
0.904454 	-56.4683
0.906852 	-56.4619
0.90925 	-56.4554
0.911648 	-56.4489
0.914046 	-56.4424
0.916444 	-56.4359
0.918842 	-56.4294
0.92124 	-56.4228
0.923638 	-56.4162
0.926036 	-56.4096
0.928434 	-56.403
0.930832 	-56.3964
0.93323 	-56.3897
0.935628 	-56.383
0.938026 	-56.3763
0.940424 	-56.3695
0.942822 	-56.3628
0.94522 	-56.356
0.947618 	-56.3492
0.950016 	-56.3423
0.952414 	-56.3355
0.954812 	-56.3286
0.95721 	-56.3217
0.959608 	-56.3148
0.962006 	-56.3078
0.964404 	-56.3009
0.966802 	-56.2939
0.9692 	-56.2868
0.971598 	-56.2798
0.973996 	-56.2727
0.976394 	-56.2656
0.978792 	-56.2585
0.98119 	-56.2514
0.983588 	-56.2442
0.985986 	-56.237
0.988384 	-56.2298
0.990782 	-56.2226
0.99318 	-56.2153
0.995578 	-56.208
0.997976 	-56.2007
1.00037 	-56.1934
1.00277 	-56.186
1.00517 	-56.1786
1.00757 	-56.1712
1.00997 	-56.1638
1.01236 	-56.1563
1.01476 	-56.1489
1.01716 	-56.1414
1.01956 	-56.1338
1.02196 	-56.1263
1.02435 	-56.1187
1.02675 	-56.1111
1.02915 	-56.1034
1.03155 	-56.0958
1.03395 	-56.0881
1.03634 	-56.0804
1.03874 	-56.0726
1.04114 	-56.0649
1.04354 	-56.0571
1.04594 	-56.0493
1.04833 	-56.0414
1.05073 	-56.0335
1.05313 	-56.0257
1.05553 	-56.0177
1.05793 	-56.0098
1.06032 	-56.0018
1.06272 	-55.9938
1.06512 	-55.9858
1.06752 	-55.9777
1.06992 	-55.9696
1.07231 	-55.9615
1.07471 	-55.9534
1.07711 	-55.9452
1.07951 	-55.937
1.08191 	-55.9288
1.0843 	-55.9206
1.0867 	-55.9123
1.0891 	-55.904
1.0915 	-55.8957
1.0939 	-55.8873
1.09629 	-55.8789
1.09869 	-55.8705
1.10109 	-55.8621
1.10349 	-55.8536
1.10589 	-55.8451
1.10828 	-55.8366
1.11068 	-55.8281
1.11308 	-55.8195
1.11548 	-55.8109
1.11788 	-55.8022
1.12027 	-55.7936
1.12267 	-55.7849
1.12507 	-55.7761
1.12747 	-55.7674
1.12987 	-55.7586
1.13226 	-55.7498
1.13466 	-55.741
1.13706 	-55.7321
1.13946 	-55.7232
1.14186 	-55.7143
1.14425 	-55.7053
1.14665 	-55.6963
1.14905 	-55.6873
1.15145 	-55.6783
1.15385 	-55.6692
1.15624 	-55.6601
1.15864 	-55.6509
1.16104 	-55.6418
1.16344 	-55.6326
1.16584 	-55.6233
1.16823 	-55.6141
1.17063 	-55.6048
1.17303 	-55.5955
1.17543 	-55.5861
1.17783 	-55.5768
1.18022 	-55.5673
1.18262 	-55.5579
1.18502 	-55.5484
1.18742 	-55.5389
1.18982 	-55.5294
1.19221 	-55.5198
1.19461 	-55.5102
1.19701 	-55.5006
1.19941 	-55.4909
1.20181 	-55.4812
1.2042 	-55.4715
1.2066 	-55.4618
1.209 	-55.452
1.2114 	-55.4422
1.2138 	-55.4323
1.21619 	-55.4224
1.21859 	-55.4125
1.22099 	-55.4025
1.22339 	-55.3926
1.22579 	-55.3826
1.22818 	-55.3725
1.23058 	-55.3624
1.23298 	-55.3523
1.23538 	-55.3422
1.23778 	-55.332
1.24017 	-55.3218
1.24257 	-55.3115
1.24497 	-55.3013
1.24737 	-55.2909
1.24977 	-55.2806
1.25216 	-55.2702
1.25456 	-55.2598
1.25696 	-55.2494
1.25936 	-55.2389
1.26176 	-55.2284
1.26415 	-55.2178
1.26655 	-55.2072
1.26895 	-55.1966
1.27135 	-55.186
1.27375 	-55.1753
1.27614 	-55.1645
1.27854 	-55.1538
1.28094 	-55.143
1.28334 	-55.1322
1.28574 	-55.1213
1.28813 	-55.1104
1.29053 	-55.0995
1.29293 	-55.0885
1.29533 	-55.0775
1.29773 	-55.0665
1.30012 	-55.0554
1.30252 	-55.0443
1.30492 	-55.0332
1.30732 	-55.022
1.30972 	-55.0108
1.31211 	-54.9995
1.31451 	-54.9882
1.31691 	-54.9769
1.31931 	-54.9655
1.32171 	-54.9541
1.3241 	-54.9427
1.3265 	-54.9312
1.3289 	-54.9197
1.3313 	-54.9082
1.3337 	-54.8966
1.33609 	-54.885
1.33849 	-54.8733
1.34089 	-54.8616
1.34329 	-54.8499
1.34569 	-54.8381
1.34808 	-54.8263
1.35048 	-54.8145
1.35288 	-54.8026
1.35528 	-54.7907
1.35768 	-54.7787
1.36007 	-54.7667
1.36247 	-54.7547
1.36487 	-54.7426
1.36727 	-54.7305
1.36967 	-54.7184
1.37206 	-54.7062
1.37446 	-54.6939
1.37686 	-54.6817
1.37926 	-54.6694
1.38166 	-54.657
1.38405 	-54.6446
1.38645 	-54.6322
1.38885 	-54.6198
1.39125 	-54.6073
1.39365 	-54.5947
1.39604 	-54.5821
1.39844 	-54.5695
1.40084 	-54.5569
1.40324 	-54.5442
1.40564 	-54.5314
1.40803 	-54.5186
1.41043 	-54.5058
1.41283 	-54.493
1.41523 	-54.48
1.41763 	-54.4671
1.42002 	-54.4541
1.42242 	-54.4411
1.42482 	-54.428
1.42722 	-54.4149
1.42962 	-54.4018
1.43201 	-54.3886
1.43441 	-54.3754
1.43681 	-54.3621
1.43921 	-54.3488
1.44161 	-54.3354
1.444 	-54.322
1.4464 	-54.3086
1.4488 	-54.2951
1.4512 	-54.2816
1.4536 	-54.268
1.45599 	-54.2544
1.45839 	-54.2407
1.46079 	-54.2271
1.46319 	-54.2133
1.46559 	-54.1995
1.46798 	-54.1857
1.47038 	-54.1719
1.47278 	-54.1579
1.47518 	-54.144
1.47758 	-54.13
1.47997 	-54.116
1.48237 	-54.1019
1.48477 	-54.0878
1.48717 	-54.0736
1.48957 	-54.0594
1.49196 	-54.0451
1.49436 	-54.0308
1.49676 	-54.0165
1.49916 	-54.0021
1.50156 	-53.9876
1.50395 	-53.9732
1.50635 	-53.9586
1.50875 	-53.9441
1.51115 	-53.9294
1.51355 	-53.9148
1.51594 	-53.9001
1.51834 	-53.8853
1.52074 	-53.8705
1.52314 	-53.8557
1.52554 	-53.8408
1.52793 	-53.8259
1.53033 	-53.8109
1.53273 	-53.7959
1.53513 	-53.7808
1.53753 	-53.7657
1.53992 	-53.7505
1.54232 	-53.7353
1.54472 	-53.7201
1.54712 	-53.7048
1.54952 	-53.6894
1.55191 	-53.674
1.55431 	-53.6586
1.55671 	-53.6431
1.55911 	-53.6275
1.56151 	-53.612
1.5639 	-53.5963
1.5663 	-53.5806
1.5687 	-53.5649
1.5711 	-53.5491
1.5735 	-53.5333
1.57589 	-53.5174
1.57829 	-53.5015
1.58069 	-53.4856
1.58309 	-53.4695
1.58549 	-53.4535
1.58788 	-53.4374
1.59028 	-53.4212
1.59268 	-53.405
1.59508 	-53.3887
1.59748 	-53.3724
1.59987 	-53.3561
1.60227 	-53.3397
1.60467 	-53.3232
1.60707 	-53.3067
1.60947 	-53.2901
1.61186 	-53.2735
1.61426 	-53.2569
1.61666 	-53.2402
1.61906 	-53.2234
1.62146 	-53.2066
1.62385 	-53.1898
1.62625 	-53.1729
1.62865 	-53.1559
1.63105 	-53.1389
1.63345 	-53.1218
1.63584 	-53.1047
1.63824 	-53.0876
1.64064 	-53.0704
1.64304 	-53.0531
1.64544 	-53.0358
1.64783 	-53.0184
1.65023 	-53.001
1.65263 	-52.9835
1.65503 	-52.966
1.65743 	-52.9484
1.65982 	-52.9308
1.66222 	-52.9131
1.66462 	-52.8954
1.66702 	-52.8776
1.66942 	-52.8598
1.67181 	-52.8419
1.67421 	-52.824
1.67661 	-52.806
1.67901 	-52.7879
1.68141 	-52.7698
1.6838 	-52.7517
1.6862 	-52.7335
1.6886 	-52.7152
1.691 	-52.6969
1.6934 	-52.6785
1.69579 	-52.6601
1.69819 	-52.6417
1.70059 	-52.6231
1.70299 	-52.6045
1.70539 	-52.5859
1.70778 	-52.5672
1.71018 	-52.5485
1.71258 	-52.5297
1.71498 	-52.5108
1.71738 	-52.4919
1.71977 	-52.473
1.72217 	-52.4539
1.72457 	-52.4349
1.72697 	-52.4157
1.72937 	-52.3966
1.73176 	-52.3773
1.73416 	-52.358
1.73656 	-52.3387
1.73896 	-52.3193
1.74136 	-52.2998
1.74375 	-52.2803
1.74615 	-52.2607
1.74855 	-52.2411
1.75095 	-52.2214
1.75335 	-52.2016
1.75574 	-52.1818
1.75814 	-52.162
1.76054 	-52.1421
1.76294 	-52.1221
1.76534 	-52.1021
1.76773 	-52.082
1.77013 	-52.0618
1.77253 	-52.0416
1.77493 	-52.0214
1.77733 	-52.0011
1.77972 	-51.9807
1.78212 	-51.9603
1.78452 	-51.9398
1.78692 	-51.9192
1.78932 	-51.8986
1.79171 	-51.878
1.79411 	-51.8572
1.79651 	-51.8365
1.79891 	-51.8156
1.80131 	-51.7947
1.8037 	-51.7738
1.8061 	-51.7527
1.8085 	-51.7317
1.8109 	-51.7105
1.8133 	-51.6893
1.81569 	-51.6681
1.81809 	-51.6468
1.82049 	-51.6254
1.82289 	-51.604
1.82529 	-51.5825
1.82768 	-51.5609
1.83008 	-51.5393
1.83248 	-51.5176
1.83488 	-51.4959
1.83728 	-51.4741
1.83967 	-51.4523
1.84207 	-51.4303
1.84447 	-51.4084
1.84687 	-51.3863
1.84927 	-51.3642
1.85166 	-51.3421
1.85406 	-51.3199
1.85646 	-51.2976
1.85886 	-51.2752
1.86126 	-51.2528
1.86365 	-51.2304
1.86605 	-51.2078
1.86845 	-51.1853
1.87085 	-51.1626
1.87325 	-51.1399
1.87564 	-51.1171
1.87804 	-51.0943
1.88044 	-51.0714
1.88284 	-51.0484
1.88524 	-51.0254
1.88763 	-51.0023
1.89003 	-50.9792
1.89243 	-50.9559
1.89483 	-50.9327
1.89723 	-50.9093
1.89962 	-50.8859
1.90202 	-50.8625
1.90442 	-50.8389
1.90682 	-50.8153
1.90922 	-50.7917
1.91161 	-50.768
1.91401 	-50.7442
1.91641 	-50.7203
1.91881 	-50.6964
1.92121 	-50.6724
1.9236 	-50.6484
1.926 	-50.6243
1.9284 	-50.6001
1.9308 	-50.5759
1.9332 	-50.5516
1.93559 	-50.5272
1.93799 	-50.5028
1.94039 	-50.4783
1.94279 	-50.4538
1.94519 	-50.4291
1.94758 	-50.4044
1.94998 	-50.3797
1.95238 	-50.3549
1.95478 	-50.33
1.95718 	-50.305
1.95957 	-50.28
1.96197 	-50.2549
1.96437 	-50.2298
1.96677 	-50.2046
1.96917 	-50.1793
1.97156 	-50.154
1.97396 	-50.1286
1.97636 	-50.1031
1.97876 	-50.0775
1.98116 	-50.0519
1.98355 	-50.0262
1.98595 	-50.0005
1.98835 	-49.9747
1.99075 	-49.9488
1.99315 	-49.9229
1.99554 	-49.8969
1.99794 	-49.8708
2.00034 	-49.8446
2.00274 	-49.8184
2.00514 	-49.7921
2.00753 	-49.7658
2.00993 	-49.7394
2.01233 	-49.7129
2.01473 	-49.6863
2.01713 	-49.6597
2.01952 	-49.633
2.02192 	-49.6063
2.02432 	-49.5795
2.02672 	-49.5526
2.02912 	-49.5256
2.03151 	-49.4986
2.03391 	-49.4715
2.03631 	-49.4443
2.03871 	-49.4171
2.04111 	-49.3898
2.0435 	-49.3624
2.0459 	-49.335
2.0483 	-49.3075
2.0507 	-49.2799
2.0531 	-49.2522
2.05549 	-49.2245
2.05789 	-49.1967
2.06029 	-49.1689
2.06269 	-49.141
2.06509 	-49.113
2.06748 	-49.0849
2.06988 	-49.0568
2.07228 	-49.0286
2.07468 	-49.0003
2.07708 	-48.972
2.07947 	-48.9435
2.08187 	-48.9151
2.08427 	-48.8865
2.08667 	-48.8579
2.08907 	-48.8292
2.09146 	-48.8004
2.09386 	-48.7716
2.09626 	-48.7427
2.09866 	-48.7137
2.10106 	-48.6847
2.10345 	-48.6556
2.10585 	-48.6264
2.10825 	-48.5971
2.11065 	-48.5678
2.11305 	-48.5384
2.11544 	-48.5089
2.11784 	-48.4794
2.12024 	-48.4498
2.12264 	-48.4201
2.12504 	-48.3904
2.12743 	-48.3605
2.12983 	-48.3306
2.13223 	-48.3007
2.13463 	-48.2706
2.13703 	-48.2405
2.13942 	-48.2103
2.14182 	-48.1801
2.14422 	-48.1498
2.14662 	-48.1194
2.14902 	-48.0889
2.15141 	-48.0584
2.15381 	-48.0277
2.15621 	-47.9971
2.15861 	-47.9663
2.16101 	-47.9355
2.1634 	-47.9046
2.1658 	-47.8736
2.1682 	-47.8426
2.1706 	-47.8114
2.173 	-47.7803
2.17539 	-47.749
2.17779 	-47.7177
2.18019 	-47.6863
2.18259 	-47.6548
2.18499 	-47.6232
2.18738 	-47.5916
2.18978 	-47.5599
2.19218 	-47.5282
2.19458 	-47.4963
2.19698 	-47.4644
2.19937 	-47.4324
2.20177 	-47.4004
2.20417 	-47.3682
2.20657 	-47.336
2.20897 	-47.3037
2.21136 	-47.2714
2.21376 	-47.239
2.21616 	-47.2065
2.21856 	-47.1739
2.22096 	-47.1413
2.22335 	-47.1085
2.22575 	-47.0758
2.22815 	-47.0429
2.23055 	-47.01
2.23295 	-46.977
2.23534 	-46.9439
2.23774 	-46.9107
2.24014 	-46.8775
2.24254 	-46.8442
2.24494 	-46.8108
2.24733 	-46.7774
2.24973 	-46.7439
2.25213 	-46.7103
2.25453 	-46.6766
2.25693 	-46.6429
2.25932 	-46.609
2.26172 	-46.5752
2.26412 	-46.5412
2.26652 	-46.5072
2.26892 	-46.4731
2.27131 	-46.4389
2.27371 	-46.4046
2.27611 	-46.3703
2.27851 	-46.3359
2.28091 	-46.3014
2.2833 	-46.2669
2.2857 	-46.2322
2.2881 	-46.1975
2.2905 	-46.1628
2.2929 	-46.1279
2.29529 	-46.093
2.29769 	-46.058
2.30009 	-46.023
2.30249 	-45.9878
2.30489 	-45.9526
2.30728 	-45.9173
2.30968 	-45.882
2.31208 	-45.8465
2.31448 	-45.811
2.31688 	-45.7754
2.31927 	-45.7398
2.32167 	-45.7041
2.32407 	-45.6683
2.32647 	-45.6324
2.32887 	-45.5964
2.33126 	-45.5604
2.33366 	-45.5243
2.33606 	-45.4882
2.33846 	-45.4519
2.34086 	-45.4156
2.34325 	-45.3792
2.34565 	-45.3428
2.34805 	-45.3062
2.35045 	-45.2696
2.35285 	-45.2329
2.35524 	-45.1962
2.35764 	-45.1593
2.36004 	-45.1224
2.36244 	-45.0855
2.36484 	-45.0484
2.36723 	-45.0113
2.36963 	-44.9741
2.37203 	-44.9368
2.37443 	-44.8995
2.37683 	-44.8621
2.37922 	-44.8246
2.38162 	-44.787
2.38402 	-44.7494
2.38642 	-44.7117
2.38882 	-44.6739
2.39121 	-44.6361
2.39361 	-44.5981
2.39601 	-44.5601
2.39841 	-44.5221
2.40081 	-44.4839
2.4032 	-44.4457
2.4056 	-44.4074
2.408 	-44.369
2.4104 	-44.3306
2.4128 	-44.2921
2.41519 	-44.2535
2.41759 	-44.2149
2.41999 	-44.1761
2.42239 	-44.1373
2.42479 	-44.0985
2.42718 	-44.0595
2.42958 	-44.0205
2.43198 	-43.9814
2.43438 	-43.9423
2.43678 	-43.903
2.43917 	-43.8637
2.44157 	-43.8244
2.44397 	-43.7849
2.44637 	-43.7454
2.44877 	-43.7058
2.45116 	-43.6661
2.45356 	-43.6264
2.45596 	-43.5866
2.45836 	-43.5467
2.46076 	-43.5068
2.46315 	-43.4667
2.46555 	-43.4267
2.46795 	-43.3865
2.47035 	-43.3463
2.47275 	-43.306
2.47514 	-43.2656
2.47754 	-43.2251
2.47994 	-43.1846
2.48234 	-43.144
2.48474 	-43.1034
2.48713 	-43.0626
2.48953 	-43.0218
2.49193 	-42.981
2.49433 	-42.94
2.49673 	-42.899
2.49912 	-42.8579
2.50152 	-42.8168
2.50392 	-42.7756
2.50632 	-42.7343
2.50872 	-42.6929
2.51111 	-42.6515
2.51351 	-42.61
2.51591 	-42.5684
2.51831 	-42.5268
2.52071 	-42.4851
2.5231 	-42.4433
2.5255 	-42.4015
2.5279 	-42.3595
2.5303 	-42.3176
2.5327 	-42.2755
2.53509 	-42.2334
2.53749 	-42.1912
2.53989 	-42.1489
2.54229 	-42.1066
2.54469 	-42.0642
2.54708 	-42.0218
2.54948 	-41.9792
2.55188 	-41.9366
2.55428 	-41.894
2.55668 	-41.8512
2.55907 	-41.8084
2.56147 	-41.7656
2.56387 	-41.7226
2.56627 	-41.6796
2.56867 	-41.6365
2.57106 	-41.5934
2.57346 	-41.5502
2.57586 	-41.5069
2.57826 	-41.4636
2.58066 	-41.4202
2.58305 	-41.3767
2.58545 	-41.3332
2.58785 	-41.2896
2.59025 	-41.2459
2.59265 	-41.2022
2.59504 	-41.1584
2.59744 	-41.1145
2.59984 	-41.0706
2.60224 	-41.0266
2.60464 	-40.9825
2.60703 	-40.9384
2.60943 	-40.8942
2.61183 	-40.85
2.61423 	-40.8057
2.61663 	-40.7613
2.61902 	-40.7168
2.62142 	-40.6723
