# Mass = 0.0463958 Mev*(hbarc)^2/2 
# R = 3.78 fm 
# a = 0.662 fm 
# V0 = 56.9883 MeV 
# RSO = 3.48 fm 
# aSO = 0.662 fm 
# VSO = 29.9379 MeV fm^2
# Rc = 3.78 fm
# Zc = 12
# n = 0 
# l = 2 
# two_j = 5 
# two_t = 1 
# Energy = -11.3361 MeV
# r          u            Phi          u/r          
0.01         9.42992e-08  5.78869e-06  9.42992e-06  
0.012398     1.79705e-07  8.89764e-06  1.44947e-05  
0.014796     3.05446e-07  1.26722e-05  2.06438e-05  
0.017194     4.7932e-07   1.71122e-05  2.78772e-05  
0.019592     7.09128e-07  2.22177e-05  3.61948e-05  
0.02199      1.00267e-06  2.79885e-05  4.55965e-05  
0.024388     1.36773e-06  3.44246e-05  5.60822e-05  
0.026786     1.81212e-06  4.15258e-05  6.76519e-05  
0.029184     2.34363e-06  4.92921e-05  8.03053e-05  
0.031582     2.97005e-06  5.77233e-05  9.40424e-05  
0.03398      3.69917e-06  6.68192e-05  0.000108863  
0.036378     4.53878e-06  7.65797e-05  0.000124767  
0.038776     5.49667e-06  8.70047e-05  0.000141754  
0.041174     6.58062e-06  9.8094e-05   0.000159825  
0.043572     7.79843e-06  0.000109847  0.000178978  
0.04597      9.15786e-06  0.000122265  0.000199214  
0.048368     1.06667e-05  0.000135346  0.000220532  
0.050766     1.23327e-05  0.00014909   0.000242933  
0.053164     1.41637e-05  0.000163498  0.000266416  
0.055562     1.61675e-05  0.000178569  0.000290981  
0.05796      1.83517e-05  0.000194303  0.000316627  
0.060358     2.07242e-05  0.0002107    0.000343355  
0.062756     2.32928e-05  0.000227759  0.000371164  
0.065154     2.60651e-05  0.000245479  0.000400054  
0.067552     2.9049e-05   0.000263862  0.000430024  
0.06995      3.22522e-05  0.000282906  0.000461075  
0.072348     3.56824e-05  0.000302612  0.000493206  
0.074746     3.93475e-05  0.000322978  0.000526416  
0.077144     4.32551e-05  0.000344005  0.000560706  
0.079542     4.7413e-05   0.000365693  0.000596075  
0.08194      5.18289e-05  0.00038804   0.000632523  
0.084338     5.65106e-05  0.000411047  0.000670049  
0.086736     6.14658e-05  0.000434713  0.000708654  
0.089134     6.67022e-05  0.000459038  0.000748336  
0.091532     7.22275e-05  0.000484022  0.000789095  
0.09393      7.80494e-05  0.000509663  0.000830932  
0.096328     8.41757e-05  0.000535963  0.000873845  
0.098726     9.06141e-05  0.00056292   0.000917834  
0.101124     9.73722e-05  0.000590533  0.000962899  
0.103522     0.000104458  0.000618804  0.00100904   
0.10592      0.000111879  0.00064773   0.00105626   
0.108318     0.000119642  0.000677312  0.00110455   
0.110716     0.000127756  0.000707549  0.00115391   
0.113114     0.000136229  0.000738441  0.00120435   
0.115512     0.000145067  0.000769987  0.00125586   
0.11791      0.000154278  0.000802187  0.00130844   
0.120308     0.000163871  0.00083504   0.0013621    
0.122706     0.000173853  0.000868547  0.00141682   
0.125104     0.000184231  0.000902705  0.00147262   
0.127502     0.000195013  0.000937515  0.00152949   
0.1299       0.000206207  0.000972976  0.00158743   
0.132298     0.000217821  0.00100909   0.00164644   
0.134696     0.000229861  0.00104585   0.00170652   
0.137094     0.000242337  0.00108326   0.00176767   
0.139492     0.000255254  0.00112132   0.00182988   
0.14189      0.000268621  0.00116003   0.00189316   
0.144288     0.000282446  0.00119939   0.00195751   
0.146686     0.000296735  0.00123939   0.00202293   
0.149084     0.000311498  0.00128004   0.00208941   
0.151482     0.00032674   0.00132134   0.00215696   
0.15388      0.00034247   0.00136328   0.00222557   
0.156278     0.000358696  0.00140587   0.00229524   
0.158676     0.000375424  0.0014491    0.00236598   
0.161074     0.000392663  0.00149298   0.00243778   
0.163472     0.00041042   0.00153749   0.00251064   
0.16587      0.000428702  0.00158265   0.00258456   
0.168268     0.000447517  0.00162845   0.00265955   
0.170666     0.000466873  0.0016749    0.00273559   
0.173064     0.000486776  0.00172198   0.0028127    
0.175462     0.000507236  0.0017697    0.00289086   
0.17786      0.000528258  0.00181806   0.00297008   
0.180258     0.00054985   0.00186706   0.00305035   
0.182656     0.000572021  0.00191669   0.00313169   
0.185054     0.000594777  0.00196696   0.00321407   
0.187452     0.000618126  0.00201787   0.00329752   
0.18985      0.000642075  0.00206941   0.00338201   
0.192248     0.000666632  0.00212159   0.00346756   
0.194646     0.000691804  0.0021744    0.00355417   
0.197044     0.000717599  0.00222784   0.00364182   
0.199442     0.000744024  0.00228191   0.00373053   
0.20184      0.000771086  0.00233662   0.00382028   
0.204238     0.000798793  0.00239195   0.00391109   
0.206636     0.000827152  0.00244792   0.00400294   
0.209034     0.000856171  0.00250451   0.00409584   
0.211432     0.000885856  0.00256173   0.00418979   
0.21383      0.000916216  0.00261957   0.00428479   
0.216228     0.000947257  0.00267804   0.00438082   
0.218626     0.000978987  0.00273714   0.00447791   
0.221024     0.00101141   0.00279686   0.00457604   
0.223422     0.00104454   0.00285721   0.0046752    
0.22582      0.00107838   0.00291817   0.00477542   
0.228218     0.00111294   0.00297976   0.00487667   
0.230616     0.00114823   0.00304197   0.00497896   
0.233014     0.00118424   0.00310479   0.00508229   
0.235412     0.001221     0.00316824   0.00518666   
0.23781      0.00125851   0.0032323    0.00529206   
0.240208     0.00129676   0.00329698   0.0053985    
0.242606     0.00133578   0.00336228   0.00550598   
0.245004     0.00137557   0.00342819   0.00561449   
0.247402     0.00141614   0.00349471   0.00572403   
0.2498       0.00145749   0.00356185   0.00583461   
0.252198     0.00149962   0.00362959   0.00594622   
0.254596     0.00154256   0.00369795   0.00605885   
0.256994     0.0015863    0.00376692   0.00617252   
0.259392     0.00163085   0.0038365    0.00628721   
0.26179      0.00167622   0.00390668   0.00640293   
0.264188     0.00172242   0.00397747   0.00651968   
0.266586     0.00176945   0.00404886   0.00663745   
0.268984     0.00181732   0.00412086   0.00675625   
0.271382     0.00186604   0.00419346   0.00687607   
0.27378      0.00191561   0.00426667   0.00699691   
0.276178     0.00196605   0.00434047   0.00711877   
0.278576     0.00201735   0.00441488   0.00724165   
0.280974     0.00206953   0.00448988   0.00736555   
0.283372     0.00212259   0.00456548   0.00749046   
0.28577      0.00217654   0.00464168   0.00761639   
0.288168     0.00223138   0.00471847   0.00774334   
0.290566     0.00228713   0.00479586   0.0078713    
0.292964     0.00234379   0.00487384   0.00800027   
0.295362     0.00240137   0.00495241   0.00813026   
0.29776      0.00245987   0.00503158   0.00826126   
0.300158     0.0025193    0.00511133   0.00839326   
0.302556     0.00257968   0.00519167   0.00852627   
0.304954     0.00264099   0.00527259   0.00866029   
0.307352     0.00270326   0.00535411   0.00879532   
0.30975      0.00276648   0.0054362    0.00893135   
0.312148     0.00283068   0.00551888   0.00906838   
0.314546     0.00289584   0.00560215   0.00920641   
0.316944     0.00296198   0.00568599   0.00934545   
0.319342     0.00302911   0.00577041   0.00948548   
0.32174      0.00309724   0.00585541   0.00962652   
0.324138     0.00316636   0.00594099   0.00976855   
0.326536     0.00323649   0.00602714   0.00991157   
0.328934     0.00330763   0.00611387   0.0100556    
0.331332     0.00337979   0.00620117   0.0102006    
0.33373      0.00345297   0.00628904   0.0103466    
0.336128     0.00352719   0.00637749   0.0104936    
0.338526     0.00360245   0.0064665    0.0106416    
0.340924     0.00367876   0.00655608   0.0107906    
0.343322     0.00375612   0.00664622   0.0109405    
0.34572      0.00383454   0.00673694   0.0110915    
0.348118     0.00391403   0.00682821   0.0112434    
0.350516     0.00399458   0.00692005   0.0113963    
0.352914     0.00407622   0.00701244   0.0115502    
0.355312     0.00415895   0.0071054    0.0117051    
0.35771      0.00424276   0.00719892   0.0118609    
0.360108     0.00432768   0.00729299   0.0120177    
0.362506     0.0044137    0.00738762   0.0121755    
0.364904     0.00450084   0.0074828    0.0123343    
0.367302     0.00458909   0.00757853   0.012494     
0.3697       0.00467847   0.00767481   0.0126548    
0.372098     0.00476898   0.00777165   0.0128165    
0.374496     0.00486062   0.00786903   0.0129791    
0.376894     0.00495342   0.00796696   0.0131427    
0.379292     0.00504736   0.00806543   0.0133073    
0.38169      0.00514246   0.00816444   0.0134729    
0.384088     0.00523872   0.008264     0.0136394    
0.386486     0.00533616   0.0083641    0.0138069    
0.388884     0.00543477   0.00846474   0.0139753    
0.391282     0.00553456   0.00856591   0.0141447    
0.39368      0.00563554   0.00866763   0.014315     
0.396078     0.00573772   0.00876987   0.0144863    
0.398476     0.00584109   0.00887265   0.0146586    
0.400874     0.00594568   0.00897596   0.0148318    
0.403272     0.00605148   0.0090798    0.0150059    
0.40567      0.0061585    0.00918417   0.015181     
0.408068     0.00626674   0.00928906   0.0153571    
0.410466     0.00637622   0.00939448   0.0155341    
0.412864     0.00648693   0.00950042   0.015712     
0.415262     0.0065989    0.00960689   0.0158909    
0.41766      0.00671211   0.00971387   0.0160707    
0.420058     0.00682657   0.00982138   0.0162515    
0.422456     0.00694231   0.0099294    0.0164332    
0.424854     0.00705931   0.0100379    0.0166158    
0.427252     0.00717758   0.010147     0.0167994    
0.42965      0.00729714   0.0102565    0.0169839    
0.432048     0.00741798   0.0103666    0.0171693    
0.434446     0.00754012   0.0104772    0.0173557    
0.436844     0.00766355   0.0105883    0.017543     
0.439242     0.00778829   0.0106999    0.0177312    
0.44164      0.00791434   0.010812     0.0179203    
0.444038     0.00804171   0.0109246    0.0181104    
0.446436     0.0081704    0.0110377    0.0183014    
0.448834     0.00830041   0.0111513    0.0184933    
0.451232     0.00843177   0.0112654    0.0186861    
0.45363      0.00856446   0.0113799    0.0188798    
0.456028     0.0086985    0.011495     0.0190745    
0.458426     0.00883388   0.0116106    0.01927      
0.460824     0.00897063   0.0117267    0.0194665    
0.463222     0.00910874   0.0118432    0.0196639    
0.46562      0.00924822   0.0119602    0.0198622    
0.468018     0.00938907   0.0120778    0.0200613    
0.470416     0.0095313    0.0121958    0.0202614    
0.472814     0.00967492   0.0123143    0.0204624    
0.475212     0.00981993   0.0124332    0.0206643    
0.47761      0.00996634   0.0125527    0.0208671    
0.480008     0.0101141    0.0126726    0.0210708    
0.482406     0.0102634    0.012793     0.0212754    
0.484804     0.010414     0.0129138    0.0214808    
0.487202     0.010566     0.0130352    0.0216872    
0.4896       0.0107195    0.013157     0.0218944    
0.491998     0.0108744    0.0132792    0.0221026    
0.494396     0.0110308    0.013402     0.0223116    
0.496794     0.0111885    0.0135251    0.0225215    
0.499192     0.0113478    0.0136488    0.0227323    
0.50159      0.0115085    0.0137729    0.0229439    
0.503988     0.0116706    0.0138975    0.0231565    
0.506386     0.0118342    0.0140225    0.0233699    
0.508784     0.0119993    0.014148     0.0235842    
0.511182     0.0121658    0.0142739    0.0237994    
0.51358      0.0123338    0.0144003    0.0240154    
0.515978     0.0125033    0.0145271    0.0242323    
0.518376     0.0126743    0.0146544    0.02445      
0.520774     0.0128468    0.0147821    0.0246687    
0.523172     0.0130208    0.0149102    0.0248881    
0.52557      0.0131963    0.0150388    0.0251085    
0.527968     0.0133733    0.0151679    0.0253297    
0.530366     0.0135518    0.0152973    0.0255518    
0.532764     0.0137318    0.0154272    0.0257747    
0.535162     0.0139134    0.0155576    0.0259984    
0.53756      0.0140965    0.0156883    0.0262231    
0.539958     0.0142811    0.0158195    0.0264485    
0.542356     0.0144672    0.0159511    0.0266748    
0.544754     0.014655     0.0160832    0.026902     
0.547152     0.0148442    0.0162156    0.02713      
0.54955      0.015035     0.0163485    0.0273588    
0.551948     0.0152274    0.0164818    0.0275885    
0.554346     0.0154213    0.0166155    0.027819     
0.556744     0.0156168    0.0167496    0.0280503    
0.559142     0.0158139    0.0168842    0.0282825    
0.56154      0.0160126    0.0170191    0.0285155    
0.563938     0.0162128    0.0171545    0.0287493    
0.566336     0.0164147    0.0172902    0.028984     
0.568734     0.0166181    0.0174264    0.0292194    
0.571132     0.0168231    0.017563     0.0294557    
0.57353      0.0170297    0.0176999    0.0296928    
0.575928     0.017238     0.0178373    0.0299308    
0.578326     0.0174478    0.017975     0.0301695    
0.580724     0.0176593    0.0181132    0.0304091    
0.583122     0.0178724    0.0182517    0.0306494    
0.58552      0.0180871    0.0183906    0.0308906    
0.587918     0.0183034    0.01853      0.0311326    
0.590316     0.0185214    0.0186696    0.0313754    
0.592714     0.018741     0.0188097    0.0316189    
0.595112     0.0189622    0.0189502    0.0318633    
0.59751      0.0191852    0.019091     0.0321085    
0.599908     0.0194097    0.0192322    0.0323545    
0.602306     0.0196359    0.0193738    0.0326013    
0.604704     0.0198638    0.0195158    0.0328488    
0.607102     0.0200933    0.0196581    0.0330972    
0.6095       0.0203246    0.0198008    0.0333463    
0.611898     0.0205574    0.0199438    0.0335962    
0.614296     0.020792     0.0200872    0.0338469    
0.616694     0.0210283    0.020231     0.0340984    
0.619092     0.0212662    0.0203751    0.0343506    
0.62149      0.0215058    0.0205196    0.0346037    
0.623888     0.0217471    0.0206645    0.0348575    
0.626286     0.0219902    0.0208097    0.035112     
0.628684     0.0222349    0.0209552    0.0353674    
0.631082     0.0224813    0.0211011    0.0356235    
0.63348      0.0227295    0.0212473    0.0358803    
0.635878     0.0229793    0.0213939    0.036138     
0.638276     0.0232309    0.0215408    0.0363963    
0.640674     0.0234842    0.0216881    0.0366555    
0.643072     0.0237392    0.0218357    0.0369154    
0.64547      0.023996     0.0219836    0.037176     
0.647868     0.0242545    0.0221318    0.0374374    
0.650266     0.0245147    0.0222804    0.0376996    
0.652664     0.0247767    0.0224293    0.0379625    
0.655062     0.0250405    0.0225786    0.0382261    
0.65746      0.0253059    0.0227281    0.0384905    
0.659858     0.0255732    0.022878     0.0387556    
0.662256     0.0258422    0.0230282    0.0390214    
0.664654     0.0261129    0.0231787    0.039288     
0.667052     0.0263854    0.0233295    0.0395553    
0.66945      0.0266597    0.0234806    0.0398233    
0.671848     0.0269358    0.0236321    0.0400921    
0.674246     0.0272136    0.0237838    0.0403616    
0.676644     0.0274932    0.0239358    0.0406318    
0.679042     0.0277746    0.0240882    0.0409027    
0.68144      0.0280578    0.0242408    0.0411743    
0.683838     0.0283428    0.0243938    0.0414467    
0.686236     0.0286296    0.024547     0.0417197    
0.688634     0.0289181    0.0247005    0.0419935    
0.691032     0.0292085    0.0248543    0.042268     
0.69343      0.0295007    0.0250084    0.0425431    
0.695828     0.0297947    0.0251628    0.042819     
0.698226     0.0300905    0.0253175    0.0430956    
0.700624     0.0303881    0.0254724    0.0433729    
0.703022     0.0306875    0.0256276    0.0436508    
0.70542      0.0309887    0.0257831    0.0439295    
0.707818     0.0312918    0.0259389    0.0442088    
0.710216     0.0315967    0.0260949    0.0444889    
0.712614     0.0319034    0.0262512    0.0447696    
0.715012     0.032212     0.0264078    0.045051     
0.71741      0.0325224    0.0265646    0.0453331    
0.719808     0.0328346    0.0267217    0.0456158    
0.722206     0.0331487    0.026879     0.0458992    
0.724604     0.0334646    0.0270366    0.0461833    
0.727002     0.0337824    0.0271945    0.0464681    
0.7294       0.034102     0.0273526    0.0467535    
0.731798     0.0344235    0.0275109    0.0470396    
0.734196     0.0347468    0.0276695    0.0473264    
0.736594     0.035072     0.0278284    0.0476138    
0.738992     0.0353991    0.0279874    0.0479019    
0.74139      0.035728     0.0281467    0.0481906    
0.743788     0.0360588    0.0283063    0.04848      
0.746186     0.0363915    0.0284661    0.04877      
0.748584     0.036726     0.0286261    0.0490606    
0.750982     0.0370624    0.0287863    0.049352     
0.75338      0.0374007    0.0289468    0.0496439    
0.755778     0.0377409    0.0291075    0.0499365    
0.758176     0.038083     0.0292684    0.0502297    
0.760574     0.0384269    0.0294295    0.0505235    
0.762972     0.0387727    0.0295908    0.050818     
0.76537      0.0391205    0.0297524    0.0511131    
0.767768     0.0394701    0.0299141    0.0514089    
0.770166     0.0398216    0.0300761    0.0517052    
0.772564     0.040175     0.0302383    0.0520022    
0.774962     0.0405303    0.0304007    0.0522998    
0.77736      0.0408876    0.0305632    0.052598     
0.779758     0.0412467    0.030726     0.0528968    
0.782156     0.0416077    0.030889     0.0531962    
0.784554     0.0419707    0.0310521    0.0534962    
0.786952     0.0423355    0.0312155    0.0537969    
0.78935      0.0427023    0.031379     0.0540981    
0.791748     0.043071     0.0315427    0.0543999    
0.794146     0.0434416    0.0317066    0.0547023    
0.796544     0.0438142    0.0318707    0.0550053    
0.798942     0.0441886    0.032035     0.0553089    
0.80134      0.044565     0.0321994    0.0556131    
0.803738     0.0449433    0.032364     0.0559179    
0.806136     0.0453236    0.0325288    0.0562232    
0.808534     0.0457058    0.0326937    0.0565292    
0.810932     0.0460899    0.0328588    0.0568357    
0.81333      0.0464759    0.0330241    0.0571428    
0.815728     0.0468639    0.0331895    0.0574504    
0.818126     0.0472538    0.0333551    0.0577586    
0.820524     0.0476457    0.0335208    0.0580674    
0.822922     0.0480395    0.0336867    0.0583767    
0.82532      0.0484353    0.0338527    0.0586866    
0.827718     0.048833     0.0340189    0.0589971    
0.830116     0.0492326    0.0341852    0.0593081    
0.832514     0.0496342    0.0343516    0.0596197    
0.834912     0.0500377    0.0345182    0.0599318    
0.83731      0.0504433    0.0346849    0.0602444    
0.839708     0.0508507    0.0348518    0.0605576    
0.842106     0.0512601    0.0350188    0.0608713    
0.844504     0.0516715    0.0351859    0.0611856    
0.846902     0.0520848    0.0353531    0.0615004    
0.8493       0.0525001    0.0355205    0.0618157    
0.851698     0.0529174    0.035688     0.0621316    
0.854096     0.0533366    0.0358556    0.062448     
0.856494     0.0537578    0.0360233    0.0627649    
0.858892     0.0541809    0.0361911    0.0630823    
0.86129      0.054606     0.036359     0.0634003    
0.863688     0.0550331    0.036527     0.0637187    
0.866086     0.0554622    0.0366952    0.0640377    
0.868484     0.0558932    0.0368634    0.0643572    
0.870882     0.0563262    0.0370317    0.0646772    
0.87328      0.0567611    0.0372002    0.0649977    
0.875678     0.0571981    0.0373687    0.0653186    
0.878076     0.057637     0.0375373    0.0656401    
0.880474     0.0580779    0.037706     0.0659621    
0.882872     0.0585208    0.0378748    0.0662846    
0.88527      0.0589656    0.0380436    0.0666075    
0.887668     0.0594125    0.0382126    0.0669309    
0.890066     0.0598613    0.0383816    0.0672549    
0.892464     0.0603121    0.0385507    0.0675793    
0.894862     0.0607648    0.0387198    0.0679041    
0.89726      0.0612196    0.038889     0.0682295    
