# Mass = 0.0473265 Mev*(hbarc)^2/2 
# R = 4.82059 fm 
# a = 0.662 fm 
# V0 = 56.2183 MeV 
# RSO = 4.438 fm 
# aSO = 0.662 fm 
# VSO = 28.772 MeV fm^2
# Rc = 4.82059 fm
# Zc = 25
# n = 0 
# l = 2 
# two_j = 5 
# two_t = 1 
# Energy = -18.8507 MeV
# r          u            Phi          u/r          
0.01         5.52321e-08  7.76821e-07  5.52321e-06  
0.012398     1.05256e-07  1.19404e-06  8.48972e-06  
0.014796     1.78904e-07  1.70059e-06  1.20914e-05  
0.017194     2.80747e-07  2.29646e-06  1.63282e-05  
0.019592     4.15353e-07  2.98165e-06  2.12001e-05  
0.02199      5.87289e-07  3.75615e-06  2.67071e-05  
0.024388     8.01125e-07  4.61995e-06  3.28491e-05  
0.026786     1.06143e-06  5.57304e-06  3.96262e-05  
0.029184     1.37276e-06  6.61541e-06  4.70382e-05  
0.031582     1.7397e-06   7.74705e-06  5.50851e-05  
0.03398      2.1668e-06   8.96795e-06  6.37669e-05  
0.036378     2.65863e-06  1.02781e-05  7.30834e-05  
0.038776     3.21976e-06  1.16775e-05  8.30348e-05  
0.041174     3.85474e-06  1.31661e-05  9.36208e-05  
0.043572     4.56815e-06  1.47439e-05  0.000104841  
0.04597      5.36454e-06  1.64108e-05  0.000116697  
0.048368     6.24848e-06  1.8167e-05   0.000129186  
0.050766     7.22453e-06  2.00123e-05  0.00014231   
0.053164     8.29724e-06  2.19467e-05  0.000156069  
0.055562     9.47117e-06  2.39703e-05  0.000170461  
0.05796      1.07509e-05  2.60829e-05  0.000185488  
0.060358     1.21409e-05  2.82846e-05  0.000201149  
0.062756     1.36459e-05  3.05753e-05  0.000217443  
0.065154     1.52703e-05  3.29551e-05  0.000234372  
0.067552     1.70187e-05  3.54239e-05  0.000251934  
0.06995      1.88956e-05  3.79816e-05  0.00027013   
0.072348     2.09057e-05  4.06283e-05  0.00028896   
0.074746     2.30534e-05  4.33639e-05  0.000308423  
0.077144     2.53432e-05  4.61883e-05  0.000328519  
0.079542     2.77799e-05  4.91017e-05  0.000349248  
0.08194      3.03678e-05  5.21039e-05  0.00037061   
0.084338     3.31116e-05  5.51948e-05  0.000392605  
0.086736     3.60157e-05  5.83746e-05  0.000415233  
0.089134     3.90847e-05  6.1643e-05   0.000438494  
0.091532     4.23232e-05  6.50002e-05  0.000462387  
0.09393      4.57357e-05  6.8446e-05   0.000486912  
0.096328     4.93267e-05  7.19805e-05  0.00051207   
0.098726     5.31007e-05  7.56036e-05  0.000537859  
0.101124     5.70623e-05  7.93152e-05  0.000564281  
0.103522     6.12161e-05  8.31153e-05  0.000591334  
0.10592      6.55664e-05  8.70039e-05  0.000619019  
0.108318     7.0118e-05   9.0981e-05   0.000647334  
0.110716     7.48752e-05  9.50464e-05  0.000676282  
0.113114     7.98426e-05  9.92002e-05  0.00070586   
0.115512     8.50248e-05  0.000103442  0.000736069  
0.11791      9.04262e-05  0.000107773  0.000766908  
0.120308     9.60513e-05  0.000112191  0.000798378  
0.122706     0.000101905  0.000116698  0.000830479  
0.125104     0.000107991  0.000121293  0.000863209  
0.127502     0.000114314  0.000125976  0.000896569  
0.1299       0.00012088   0.000130747  0.000930559  
0.132298     0.000127691  0.000135606  0.000965178  
0.134696     0.000134753  0.000140553  0.00100043   
0.137094     0.000142071  0.000145588  0.0010363    
0.139492     0.000149648  0.000150711  0.00107281   
0.14189      0.00015749   0.000155921  0.00110994   
0.144288     0.0001656    0.000161219  0.00114771   
0.146686     0.000173984  0.000166605  0.0011861    
0.149084     0.000182646  0.000172079  0.00122512   
0.151482     0.000191589  0.00017764   0.00126476   
0.15388      0.000200819  0.000183289  0.00130504   
0.156278     0.000210341  0.000189025  0.00134594   
0.158676     0.000220158  0.000194848  0.00138747   
0.161074     0.000230275  0.000200759  0.00142962   
0.163472     0.000240697  0.000206757  0.0014724    
0.16587      0.000251427  0.000212842  0.00151581   
0.168268     0.000262472  0.000219014  0.00155984   
0.170666     0.000273834  0.000225274  0.0016045    
0.173064     0.000285518  0.00023162   0.00164979   
0.175462     0.00029753   0.000238054  0.00169569   
0.17786      0.000309873  0.000244574  0.00174223   
0.180258     0.000322551  0.000251181  0.00178939   
0.182656     0.00033557   0.000257875  0.00183717   
0.185054     0.000348933  0.000264656  0.00188557   
0.187452     0.000362645  0.000271523  0.0019346    
0.18985      0.000376711  0.000278477  0.00198425   
0.192248     0.000391134  0.000285517  0.00203453   
0.194646     0.00040592   0.000292643  0.00208543   
0.197044     0.000421073  0.000299856  0.00213695   
0.199442     0.000436597  0.000307155  0.00218909   
0.20184      0.000452496  0.000314541  0.00224185   
0.204238     0.000468775  0.000322012  0.00229524   
0.206636     0.000485439  0.00032957   0.00234925   
0.209034     0.000502491  0.000337213  0.00240387   
0.211432     0.000519937  0.000344942  0.00245912   
0.21383      0.00053778   0.000352758  0.00251499   
0.216228     0.000556025  0.000360658  0.00257148   
0.218626     0.000574676  0.000368645  0.00262858   
0.221024     0.000593738  0.000376717  0.00268631   
0.223422     0.000613216  0.000384874  0.00274465   
0.22582      0.000633112  0.000393117  0.00280361   
0.228218     0.000653432  0.000401445  0.00286319   
0.230616     0.000674181  0.000409858  0.00292339   
0.233014     0.000695362  0.000418357  0.00298421   
0.235412     0.00071698   0.00042694   0.00304564   
0.23781      0.000739039  0.000435609  0.00310769   
0.240208     0.000761543  0.000444362  0.00317035   
0.242606     0.000784498  0.0004532    0.00323363   
0.245004     0.000807907  0.000462123  0.00329752   
0.247402     0.000831774  0.00047113   0.00336203   
0.2498       0.000856104  0.000480222  0.00342716   
0.252198     0.000880902  0.000489398  0.0034929    
0.254596     0.00090617   0.000498658  0.00355925   
0.256994     0.000931915  0.000508003  0.00362621   
0.259392     0.00095814   0.000517432  0.00369379   
0.26179      0.000984849  0.000526945  0.00376198   
0.264188     0.00101205   0.000536541  0.00383078   
0.266586     0.00103974   0.000546222  0.0039002    
0.268984     0.00106793   0.000555986  0.00397022   
0.271382     0.00109662   0.000565834  0.00404086   
0.27378      0.00112581   0.000575765  0.00411211   
0.276178     0.00115552   0.00058578   0.00418396   
0.278576     0.00118574   0.000595878  0.00425643   
0.280974     0.00121648   0.00060606   0.0043295    
0.283372     0.00124774   0.000616324  0.00440318   
0.28577      0.00127953   0.000626672  0.00447747   
0.288168     0.00131185   0.000637102  0.00455237   
0.290566     0.0013447    0.000647615  0.00462788   
0.292964     0.0013781    0.000658211  0.00470399   
0.295362     0.00141204   0.000668889  0.00478071   
0.29776      0.00144653   0.00067965   0.00485803   
0.300158     0.00148157   0.000690493  0.00493596   
0.302556     0.00151717   0.000701419  0.0050145    
0.304954     0.00155332   0.000712426  0.00509363   
0.307352     0.00159005   0.000723516  0.00517338   
0.30975      0.00162734   0.000734687  0.00525372   
0.312148     0.00166521   0.000745941  0.00533467   
0.314546     0.00170365   0.000757275  0.00541622   
0.316944     0.00174268   0.000768692  0.00549837   
0.319342     0.00178229   0.00078019   0.00558113   
0.32174      0.00182249   0.000791769  0.00566448   
0.324138     0.00186329   0.000803429  0.00574844   
0.326536     0.00190468   0.000815171  0.00583299   
0.328934     0.00194668   0.000826993  0.00591814   
0.331332     0.00198928   0.000838896  0.0060039    
0.33373      0.0020325    0.00085088   0.00609025   
0.336128     0.00207633   0.000862945  0.0061772    
0.338526     0.00212078   0.00087509   0.00626474   
0.340924     0.00216585   0.000887315  0.00635288   
0.343322     0.00221155   0.000899621  0.00644162   
0.34572      0.00225788   0.000912006  0.00653096   
0.348118     0.00230485   0.000924472  0.00662089   
0.350516     0.00235246   0.000937017  0.00671141   
0.352914     0.00240071   0.000949642  0.00680253   
0.355312     0.0024496    0.000962347  0.00689424   
0.35771      0.00249915   0.000975131  0.00698654   
0.360108     0.00254936   0.000987995  0.00707943   
0.362506     0.00260023   0.00100094   0.00717292   
0.364904     0.00265176   0.00101396   0.007267     
0.367302     0.00270396   0.00102706   0.00736167   
0.3697       0.00275683   0.00104024   0.00745693   
0.372098     0.00281037   0.0010535    0.00755277   
0.374496     0.0028646    0.00106683   0.00764921   
0.376894     0.00291951   0.00108025   0.00774623   
0.379292     0.00297511   0.00109374   0.00784384   
0.38169      0.0030314    0.00110731   0.00794204   
0.384088     0.00308839   0.00112096   0.00804083   
0.386486     0.00314607   0.00113469   0.0081402    
0.388884     0.00320446   0.00114849   0.00824015   
0.391282     0.00326356   0.00116237   0.00834069   
0.39368      0.00332337   0.00117633   0.00844182   
0.396078     0.0033839    0.00119037   0.00854352   
0.398476     0.00344515   0.00120448   0.00864581   
0.400874     0.00350712   0.00121867   0.00874869   
0.403272     0.00356982   0.00123294   0.00885214   
0.40567      0.00363325   0.00124729   0.00895617   
0.408068     0.00369742   0.00126171   0.00906079   
0.410466     0.00376232   0.0012762    0.00916598   
0.412864     0.00382797   0.00129078   0.00927175   
0.415262     0.00389437   0.00130542   0.0093781    
0.41766      0.00396152   0.00132015   0.00948503   
0.420058     0.00402942   0.00133495   0.00959253   
0.422456     0.00409808   0.00134983   0.00970061   
0.424854     0.00416751   0.00136478   0.00980927   
0.427252     0.0042377    0.00137981   0.0099185    
0.42965      0.00430866   0.00139491   0.0100283    
0.432048     0.0043804    0.00141008   0.0101387    
0.434446     0.00445291   0.00142534   0.0102496    
0.436844     0.00452621   0.00144066   0.0103612    
0.439242     0.00460029   0.00145606   0.0104733    
0.44164      0.00467516   0.00147154   0.0105859    
0.444038     0.00475083   0.00148709   0.0106992    
0.446436     0.00482729   0.00150271   0.010813     
0.448834     0.00490456   0.00151841   0.0109273    
0.451232     0.00498263   0.00153418   0.0110423    
0.45363      0.0050615    0.00155003   0.0111578    
0.456028     0.00514119   0.00156594   0.0112739    
0.458426     0.0052217    0.00158193   0.0113905    
0.460824     0.00530302   0.001598     0.0115077    
0.463222     0.00538517   0.00161414   0.0116255    
0.46562      0.00546815   0.00163035   0.0117438    
0.468018     0.00555196   0.00164663   0.0118627    
0.470416     0.0056366    0.00166298   0.0119822    
0.472814     0.00572208   0.00167941   0.0121022    
0.475212     0.0058084    0.00169591   0.0122228    
0.47761      0.00589557   0.00171248   0.0123439    
0.480008     0.00598359   0.00172912   0.0124656    
0.482406     0.00607246   0.00174584   0.0125879    
0.484804     0.00616219   0.00176262   0.0127107    
0.487202     0.00625277   0.00177948   0.012834     
0.4896       0.00634422   0.0017964    0.012958     
0.491998     0.00643654   0.0018134    0.0130825    
0.494396     0.00652974   0.00183047   0.0132075    
0.496794     0.0066238    0.00184761   0.0133331    
0.499192     0.00671874   0.00186482   0.0134592    
0.50159      0.00681457   0.0018821    0.0135859    
0.503988     0.00691128   0.00189945   0.0137132    
0.506386     0.00700888   0.00191687   0.013841     
0.508784     0.00710738   0.00193436   0.0139693    
0.511182     0.00720677   0.00195191   0.0140982    
0.51358      0.00730706   0.00196954   0.0142277    
0.515978     0.00740825   0.00198724   0.0143577    
0.518376     0.00751035   0.002005     0.0144882    
0.520774     0.00761336   0.00202284   0.0146193    
0.523172     0.00771728   0.00204074   0.014751     
0.52557      0.00782213   0.00205871   0.0148831    
0.527968     0.00792789   0.00207675   0.0150159    
0.530366     0.00803458   0.00209485   0.0151491    
0.532764     0.00814219   0.00211303   0.0152829    
0.535162     0.00825074   0.00213127   0.0154173    
0.53756      0.00836022   0.00214958   0.0155522    
0.539958     0.00847064   0.00216796   0.0156876    
0.542356     0.008582     0.0021864    0.0158236    
0.544754     0.00869431   0.00220491   0.0159601    
0.547152     0.00880756   0.00222348   0.0160971    
0.54955      0.00892177   0.00224213   0.0162347    
0.551948     0.00903693   0.00226084   0.0163728    
0.554346     0.00915305   0.00227961   0.0165114    
0.556744     0.00927013   0.00229845   0.0166506    
0.559142     0.00938818   0.00231736   0.0167903    
0.56154      0.0095072    0.00233633   0.0169306    
0.563938     0.00962718   0.00235537   0.0170714    
0.566336     0.00974815   0.00237447   0.0172127    
0.568734     0.00987009   0.00239363   0.0173545    
0.571132     0.00999301   0.00241286   0.0174969    
0.57353      0.0101169    0.00243216   0.0176397    
0.575928     0.0102418    0.00245152   0.0177832    
0.578326     0.0103677    0.00247094   0.0179271    
0.580724     0.0104946    0.00249043   0.0180716    
0.583122     0.0106225    0.00250998   0.0182166    
0.58552      0.0107514    0.00252959   0.0183621    
0.587918     0.0108813    0.00254927   0.0185081    
0.590316     0.0110122    0.00256901   0.0186547    
0.592714     0.0111441    0.00258882   0.0188018    
0.595112     0.011277     0.00260868   0.0189494    
0.59751      0.0114109    0.00262861   0.0190975    
0.599908     0.0115459    0.0026486    0.0192461    
0.602306     0.0116819    0.00266865   0.0193953    
0.604704     0.0118189    0.00268876   0.0195449    
0.607102     0.0119569    0.00270894   0.0196951    
0.6095       0.012096     0.00272918   0.0198458    
0.611898     0.0122361    0.00274947   0.019997     
0.614296     0.0123773    0.00276983   0.0201487    
0.616694     0.0125195    0.00279025   0.020301     
0.619092     0.0126627    0.00281073   0.0204537    
0.62149      0.012807     0.00283127   0.020607     
0.623888     0.0129524    0.00285187   0.0207607    
0.626286     0.0130988    0.00287253   0.020915     
0.628684     0.0132462    0.00289325   0.0210698    
0.631082     0.0133947    0.00291403   0.021225     
0.63348      0.0135443    0.00293486   0.0213808    
0.635878     0.013695     0.00295576   0.0215371    
0.638276     0.0138467    0.00297671   0.0216939    
0.640674     0.0139995    0.00299773   0.0218512    
0.643072     0.0141534    0.0030188    0.022009     
0.64547      0.0143083    0.00303993   0.0221673    
0.647868     0.0144643    0.00306112   0.0223261    
0.650266     0.0146215    0.00308236   0.0224854    
0.652664     0.0147797    0.00310366   0.0226451    
0.655062     0.014939     0.00312502   0.0228054    
0.65746      0.0150994    0.00314644   0.0229662    
0.659858     0.0152608    0.00316791   0.0231275    
0.662256     0.0154234    0.00318944   0.0232892    
0.664654     0.0155871    0.00321103   0.0234515    
0.667052     0.0157519    0.00323267   0.0236142    
0.66945      0.0159178    0.00325437   0.0237775    
0.671848     0.0160848    0.00327612   0.0239412    
0.674246     0.016253     0.00329793   0.0241054    
0.676644     0.0164222    0.00331979   0.0242701    
0.679042     0.0165926    0.00334171   0.0244353    
0.68144      0.0167641    0.00336369   0.0246009    
0.683838     0.0169367    0.00338571   0.0247671    
0.686236     0.0171104    0.00340779   0.0249337    
0.688634     0.0172853    0.00342993   0.0251008    
0.691032     0.0174613    0.00345212   0.0252684    
0.69343      0.0176384    0.00347436   0.0254365    
0.695828     0.0178167    0.00349666   0.0256051    
0.698226     0.0179961    0.00351901   0.0257741    
0.700624     0.0181767    0.00354141   0.0259436    
0.703022     0.0183584    0.00356386   0.0261136    
0.70542      0.0185413    0.00358637   0.026284     
0.707818     0.0187253    0.00360893   0.026455     
0.710216     0.0189105    0.00363154   0.0266264    
0.712614     0.0190968    0.0036542    0.0267983    
0.715012     0.0192843    0.00367691   0.0269706    
0.71741      0.019473     0.00369968   0.0271434    
0.719808     0.0196628    0.00372249   0.0273167    
0.722206     0.0198538    0.00374536   0.0274904    
0.724604     0.0200459    0.00376827   0.0276647    
0.727002     0.0202393    0.00379124   0.0278393    
0.7294       0.0204338    0.00381425   0.0280145    
0.731798     0.0206294    0.00383732   0.0281901    
0.734196     0.0208263    0.00386043   0.0283662    
0.736594     0.0210244    0.0038836    0.0285427    
0.738992     0.0212236    0.00390681   0.0287197    
0.74139      0.021424     0.00393007   0.0288971    
0.743788     0.0216256    0.00395338   0.029075     
0.746186     0.0218285    0.00397674   0.0292534    
0.748584     0.0220325    0.00400015   0.0294322    
0.750982     0.0222377    0.0040236    0.0296115    
0.75338      0.0224441    0.0040471    0.0297912    
0.755778     0.0226517    0.00407065   0.0299713    
0.758176     0.0228605    0.00409424   0.030152     
0.760574     0.0230705    0.00411788   0.030333     
0.762972     0.0232818    0.00414157   0.0305146    
0.76537      0.0234942    0.00416531   0.0306965    
0.767768     0.0237079    0.00418909   0.0308789    
0.770166     0.0239227    0.00421291   0.0310618    
0.772564     0.0241388    0.00423678   0.0312451    
0.774962     0.0243562    0.0042607    0.0314288    
0.77736      0.0245747    0.00428466   0.031613     
0.779758     0.0247945    0.00430867   0.0317977    
0.782156     0.0250155    0.00433272   0.0319827    
0.784554     0.0252377    0.00435681   0.0321682    
0.786952     0.0254612    0.00438095   0.0323542    
0.78935      0.0256859    0.00440513   0.0325405    
0.791748     0.0259118    0.00442935   0.0327273    
0.794146     0.026139     0.00445362   0.0329146    
0.796544     0.0263674    0.00447793   0.0331023    
0.798942     0.0265971    0.00450228   0.0332904    
0.80134      0.026828     0.00452668   0.0334789    
0.803738     0.0270602    0.00455112   0.0336679    
0.806136     0.0272936    0.0045756    0.0338573    
0.808534     0.0275282    0.00460012   0.0340471    
0.810932     0.0277642    0.00462468   0.0342373    
0.81333      0.0280013    0.00464928   0.034428     
0.815728     0.0282398    0.00467393   0.0346191    
0.818126     0.0284795    0.00469861   0.0348106    
0.820524     0.0287204    0.00472333   0.0350026    
0.822922     0.0289627    0.0047481    0.0351949    
0.82532      0.0292062    0.0047729    0.0353877    
0.827718     0.0294509    0.00479774   0.0355809    
0.830116     0.029697     0.00482263   0.0357745    
0.832514     0.0299443    0.00484755   0.0359685    
0.834912     0.0301929    0.00487251   0.0361629    
0.83731      0.0304427    0.00489751   0.0363578    
0.839708     0.0306939    0.00492254   0.036553     
0.842106     0.0309463    0.00494762   0.0367487    
0.844504     0.0312       0.00497273   0.0369448    
0.846902     0.031455     0.00499788   0.0371413    
0.8493       0.0317113    0.00502306   0.0373381    
0.851698     0.0319689    0.00504828   0.0375354    
0.854096     0.0322277    0.00507354   0.0377331    
0.856494     0.0324879    0.00509884   0.0379312    
0.858892     0.0327493    0.00512417   0.0381297    
0.86129      0.0330121    0.00514953   0.0383286    
0.863688     0.0332761    0.00517493   0.0385279    
0.866086     0.0335415    0.00520037   0.0387276    
0.868484     0.0338081    0.00522584   0.0389277    
0.870882     0.0340761    0.00525135   0.0391282    
0.87328      0.0343453    0.00527689   0.0393291    
0.875678     0.0346159    0.00530246   0.0395304    
0.878076     0.0348878    0.00532807   0.039732     
0.880474     0.0351609    0.00535371   0.0399341    
0.882872     0.0354354    0.00537938   0.0401365    
0.88527      0.0357112    0.00540509   0.0403394    
0.887668     0.0359884    0.00543083   0.0405426    
0.890066     0.0362668    0.0054566    0.0407462    
0.892464     0.0365466    0.00548241   0.0409502    
0.894862     0.0368277    0.00550824   0.0411546    
0.89726      0.0371101    0.00553411   0.0413593    
