# Mass = 0.0452189 Mev*(hbarc)^2/2 
# R = 3.175 fm 
# a = 0.662 fm 
# V0 = 58.2974 MeV 
# RSO = 2.92302 fm 
# aSO = 0.662 fm 
# VSO = 31.5165 MeV fm^2
# Rc = 3.175 fm
# Zc = 0
# n = 0 
# l = 1 
# two_j = 3 
# two_t = -1 
# Energy = -22.1159 MeV
# r          u            Phi          u/r          
0.01         3.38022e-05  0.000411959  0.00338022   
0.012398     5.19571e-05  0.00051073   0.00419077   
0.014796     7.39988e-05  0.000609493  0.00500127   
0.017194     9.99268e-05  0.000708247  0.00581172   
0.019592     0.000129741  0.000806991  0.00662213   
0.02199      0.00016344   0.000905724  0.00743249   
0.024388     0.000201025  0.00100445   0.00824279   
0.026786     0.000242495  0.00110315   0.00905303   
0.029184     0.000287848  0.00120184   0.00986321   
0.031582     0.000337085  0.00130052   0.0106733    
0.03398      0.000390205  0.00139918   0.0114834    
0.036378     0.000447206  0.00149782   0.0122933    
0.038776     0.00050809   0.00159645   0.0131032    
0.041174     0.000572854  0.00169505   0.013913     
0.043572     0.000641497  0.00179363   0.0147227    
0.04597      0.00071402   0.00189219   0.0155323    
0.048368     0.000790421  0.00199072   0.0163418    
0.050766     0.000870698  0.00208923   0.0171512    
0.053164     0.000954852  0.00218772   0.0179605    
0.055562     0.00104288   0.00228618   0.0187697    
0.05796      0.00113478   0.00238461   0.0195787    
0.060358     0.00123056   0.00248301   0.0203877    
0.062756     0.00133021   0.00258138   0.0211965    
0.065154     0.00143373   0.00267972   0.0220052    
0.067552     0.00154111   0.00277802   0.0228137    
0.06995      0.00165237   0.0028763    0.0236221    
0.072348     0.00176749   0.00297453   0.0244304    
0.074746     0.00188648   0.00307274   0.0252385    
0.077144     0.00200933   0.0031709    0.0260464    
0.079542     0.00213604   0.00326903   0.0268542    
0.08194      0.00226661   0.00336712   0.0276619    
0.084338     0.00240105   0.00346517   0.0284693    
0.086736     0.00253934   0.00356318   0.0292766    
0.089134     0.00268148   0.00366114   0.0300837    
0.091532     0.00282748   0.00375906   0.0308907    
0.09393      0.00297734   0.00385694   0.0316974    
0.096328     0.00313104   0.00395477   0.032504     
0.098726     0.0032886    0.00405256   0.0333103    
0.101124     0.00345      0.00415029   0.0341165    
0.103522     0.00361524   0.00424798   0.0349224    
0.10592      0.00378433   0.00434562   0.0357282    
0.108318     0.00395726   0.00444321   0.0365337    
0.110716     0.00413403   0.00454074   0.037339     
0.113114     0.00431464   0.00463822   0.0381441    
0.115512     0.00449908   0.00473565   0.038949     
0.11791      0.00468735   0.00483302   0.0397536    
0.120308     0.00487946   0.00493033   0.040558     
0.122706     0.00507539   0.00502759   0.0413622    
0.125104     0.00527515   0.00512479   0.0421661    
0.127502     0.00547873   0.00522193   0.0429698    
0.1299       0.00568614   0.005319     0.0437732    
0.132298     0.00589736   0.00541602   0.0445763    
0.134696     0.0061124    0.00551297   0.0453792    
0.137094     0.00633126   0.00560986   0.0461819    
0.139492     0.00655392   0.00570668   0.0469842    
0.14189      0.0067804    0.00580344   0.0477863    
0.144288     0.00701068   0.00590012   0.0485881    
0.146686     0.00724476   0.00599674   0.0493896    
0.149084     0.00748265   0.00609329   0.0501908    
0.151482     0.00772433   0.00618977   0.0509917    
0.15388      0.00796981   0.00628618   0.0517924    
0.156278     0.00821908   0.00638252   0.0525927    
0.158676     0.00847214   0.00647878   0.0533927    
0.161074     0.00872899   0.00657496   0.0541924    
0.163472     0.00898962   0.00667107   0.0549918    
0.16587      0.00925403   0.0067671    0.0557909    
0.168268     0.00952222   0.00686306   0.0565896    
0.170666     0.00979418   0.00695893   0.057388     
0.173064     0.0100699    0.00705473   0.0581861    
0.175462     0.0103494    0.00715044   0.0589838    
0.17786      0.0106327    0.00724607   0.0597812    
0.180258     0.0109197    0.00734161   0.0605783    
0.182656     0.0112105    0.00743707   0.0613749    
0.185054     0.011505     0.00753245   0.0621713    
0.187452     0.0118033    0.00762774   0.0629673    
0.18985      0.0121054    0.00772294   0.0637629    
0.192248     0.0124112    0.00781805   0.0645581    
0.194646     0.0127207    0.00791307   0.065353     
0.197044     0.013034     0.008008     0.0661475    
0.199442     0.013351     0.00810284   0.0669416    
0.20184      0.0136717    0.00819758   0.0677353    
0.204238     0.0139961    0.00829223   0.0685286    
0.206636     0.0143243    0.00838679   0.0693215    
0.209034     0.0146562    0.00848125   0.070114     
0.211432     0.0149918    0.00857561   0.0709062    
0.21383      0.0153312    0.00866987   0.0716979    
0.216228     0.0156742    0.00876403   0.0724892    
0.218626     0.0160209    0.00885809   0.0732801    
0.221024     0.0163714    0.00895205   0.0740705    
0.223422     0.0167255    0.00904591   0.0748605    
0.22582      0.0170833    0.00913966   0.0756501    
0.228218     0.0174448    0.00923331   0.0764393    
0.230616     0.01781      0.00932686   0.077228     
0.233014     0.0181789    0.00942029   0.0780163    
0.235412     0.0185514    0.00951362   0.0788041    
0.23781      0.0189276    0.00960684   0.0795915    
0.240208     0.0193075    0.00969994   0.0803784    
0.242606     0.0196911    0.00979294   0.0811648    
0.245004     0.0200783    0.00988583   0.0819508    
0.247402     0.0204691    0.0099786    0.0827363    
0.2498       0.0208636    0.0100713    0.0835214    
0.252198     0.0212618    0.0101638    0.0843059    
0.254596     0.0216636    0.0102562    0.08509      
0.256994     0.022069     0.0103485    0.0858736    
0.259392     0.022478     0.0104407    0.0866567    
0.26179      0.0228907    0.0105328    0.0874392    
0.264188     0.023307     0.0106247    0.0882213    
0.266586     0.0237269    0.0107166    0.0890029    
0.268984     0.0241505    0.0108083    0.089784     
0.271382     0.0245776    0.0108999    0.0905646    
0.27378      0.0250083    0.0109913    0.0913446    
0.276178     0.0254427    0.0110826    0.0921241    
0.278576     0.0258806    0.0111738    0.0929031    
0.280974     0.0263221    0.0112649    0.0936816    
0.283372     0.0267672    0.0113559    0.0944595    
0.28577      0.0272158    0.0114467    0.0952369    
0.288168     0.0276681    0.0115374    0.0960137    
0.290566     0.0281239    0.0116279    0.09679      
0.292964     0.0285832    0.0117184    0.0975657    
0.295362     0.0290462    0.0118087    0.0983409    
0.29776      0.0295126    0.0118988    0.0991155    
0.300158     0.0299827    0.0119888    0.0998896    
0.302556     0.0304562    0.0120787    0.100663     
0.304954     0.0309333    0.0121685    0.101436     
0.307352     0.0314139    0.0122581    0.102208     
0.30975      0.0318981    0.0123475    0.10298      
0.312148     0.0323857    0.0124369    0.103751     
0.314546     0.0328769    0.012526     0.104522     
0.316944     0.0333716    0.0126151    0.105292     
0.319342     0.0338698    0.012704     0.106061     
0.32174      0.0343714    0.0127927    0.10683      
0.324138     0.0348766    0.0128813    0.107598     
0.326536     0.0353853    0.0129698    0.108366     
0.328934     0.0358974    0.0130581    0.109132     
0.331332     0.036413     0.0131463    0.109899     
0.33373      0.036932     0.0132343    0.110664     
0.336128     0.0374546    0.0133221    0.11143      
0.338526     0.0379806    0.0134099    0.112194     
0.340924     0.03851      0.0134974    0.112958     
0.343322     0.0390429    0.0135848    0.113721     
0.34572      0.0395792    0.0136721    0.114483     
0.348118     0.0401189    0.0137592    0.115245     
0.350516     0.0406621    0.0138461    0.116006     
0.352914     0.0412087    0.0139329    0.116767     
0.355312     0.0417587    0.0140195    0.117527     
0.35771      0.0423121    0.014106     0.118286     
0.360108     0.0428689    0.0141923    0.119044     
0.362506     0.043429     0.0142784    0.119802     
0.364904     0.0439926    0.0143644    0.120559     
0.367302     0.0445596    0.0144502    0.121316     
0.3697       0.0451299    0.0145359    0.122072     
0.372098     0.0457036    0.0146213    0.122827     
0.374496     0.0462807    0.0147067    0.123581     
0.376894     0.0468611    0.0147918    0.124335     
0.379292     0.0474449    0.0148768    0.125088     
0.38169      0.048032     0.0149616    0.12584      
0.384088     0.0486224    0.0150463    0.126592     
0.386486     0.0492162    0.0151307    0.127343     
0.388884     0.0498133    0.015215     0.128093     
0.391282     0.0504137    0.0152992    0.128842     
0.39368      0.0510174    0.0153831    0.129591     
0.396078     0.0516244    0.0154669    0.130339     
0.398476     0.0522347    0.0155505    0.131086     
0.400874     0.0528483    0.0156339    0.131833     
0.403272     0.0534651    0.0157172    0.132578     
0.40567      0.0540853    0.0158003    0.133323     
0.408068     0.0547087    0.0158831    0.134068     
0.410466     0.0553353    0.0159659    0.134811     
0.412864     0.0559653    0.0160484    0.135554     
0.415262     0.0565984    0.0161307    0.136296     
0.41766      0.0572348    0.0162129    0.137037     
0.420058     0.0578745    0.0162949    0.137777     
0.422456     0.0585173    0.0163767    0.138517     
0.424854     0.0591634    0.0164583    0.139256     
0.427252     0.0598126    0.0165397    0.139994     
0.42965      0.0604651    0.016621     0.140731     
0.432048     0.0611208    0.016702     0.141468     
0.434446     0.0617796    0.0167829    0.142203     
0.436844     0.0624417    0.0168636    0.142938     
0.439242     0.0631069    0.016944     0.143672     
0.44164      0.0637752    0.0170243    0.144405     
0.444038     0.0644468    0.0171044    0.145138     
0.446436     0.0651214    0.0171843    0.14587      
0.448834     0.0657992    0.017264     0.1466       
0.451232     0.0664802    0.0173435    0.14733      
0.45363      0.0671643    0.0174228    0.14806      
0.456028     0.0678514    0.017502     0.148788     
0.458426     0.0685417    0.0175809    0.149515     
0.460824     0.0692351    0.0176596    0.150242     
0.463222     0.0699316    0.0177381    0.150968     
0.46562      0.0706312    0.0178164    0.151693     
0.468018     0.0713338    0.0178946    0.152417     
0.470416     0.0720396    0.0179725    0.15314      
0.472814     0.0727484    0.0180502    0.153863     
0.475212     0.0734602    0.0181277    0.154584     
0.47761      0.0741751    0.018205     0.155305     
0.480008     0.074893     0.0182821    0.156024     
0.482406     0.075614     0.018359     0.156743     
0.484804     0.0763379    0.0184356    0.157461     
0.487202     0.0770649    0.0185121    0.158179     
0.4896       0.0777949    0.0185884    0.158895     
0.491998     0.0785279    0.0186644    0.15961      
0.494396     0.0792639    0.0187403    0.160325     
0.496794     0.0800029    0.0188159    0.161038     
0.499192     0.0807448    0.0188913    0.161751     
0.50159      0.0814897    0.0189665    0.162463     
0.503988     0.0822375    0.0190415    0.163174     
0.506386     0.0829883    0.0191163    0.163884     
0.508784     0.0837421    0.0191908    0.164593     
0.511182     0.0844987    0.0192652    0.165301     
0.51358      0.0852583    0.0193393    0.166008     
0.515978     0.0860208    0.0194132    0.166714     
0.518376     0.0867862    0.0194869    0.167419     
0.520774     0.0875545    0.0195603    0.168124     
0.523172     0.0883257    0.0196336    0.168827     
0.52557      0.0890998    0.0197066    0.16953      
0.527968     0.0898767    0.0197794    0.170231     
0.530366     0.0906565    0.019852     0.170932     
0.532764     0.0914391    0.0199243    0.171632     
0.535162     0.0922246    0.0199964    0.17233      
0.53756      0.0930129    0.0200683    0.173028     
0.539958     0.0938041    0.02014      0.173725     
0.542356     0.094598     0.0202114    0.174421     
0.544754     0.0953948    0.0202827    0.175115     
0.547152     0.0961944    0.0203537    0.175809     
0.54955      0.0969967    0.0204244    0.176502     
0.551948     0.0978019    0.0204949    0.177194     
0.554346     0.0986098    0.0205652    0.177885     
0.556744     0.0994204    0.0206353    0.178575     
0.559142     0.100234     0.0207051    0.179264     
0.56154      0.10105      0.0207747    0.179952     
0.563938     0.101869     0.0208441    0.180638     
0.566336     0.102691     0.0209132    0.181324     
0.568734     0.103515     0.0209821    0.182009     
0.571132     0.104342     0.0210507    0.182693     
0.57353      0.105172     0.0211192    0.183376     
0.575928     0.106004     0.0211873    0.184058     
0.578326     0.106839     0.0212553    0.184739     
0.580724     0.107677     0.021323     0.185418     
0.583122     0.108517     0.0213904    0.186097     
0.58552      0.10936      0.0214576    0.186775     
0.587918     0.110206     0.0215246    0.187452     
0.590316     0.111055     0.0215913    0.188127     
0.592714     0.111906     0.0216578    0.188802     
0.595112     0.112759     0.0217241    0.189475     
0.59751      0.113615     0.0217901    0.190148     
0.599908     0.114474     0.0218558    0.190819     
0.602306     0.115335     0.0219213    0.19149      
0.604704     0.116199     0.0219866    0.192159     
0.607102     0.117066     0.0220516    0.192827     
0.6095       0.117935     0.0221164    0.193495     
0.611898     0.118807     0.0221809    0.194161     
0.614296     0.119681     0.0222451    0.194826     
0.616694     0.120557     0.0223091    0.19549      
0.619092     0.121437     0.0223729    0.196153     
0.62149      0.122318     0.0224364    0.196814     
0.623888     0.123202     0.0224997    0.197475     
0.626286     0.124089     0.0225627    0.198135     
0.628684     0.124978     0.0226254    0.198793     
0.631082     0.12587      0.0226879    0.199451     
0.63348      0.126764     0.0227502    0.200107     
0.635878     0.12766      0.0228121    0.200762     
0.638276     0.128559     0.0228739    0.201416     
0.640674     0.129461     0.0229353    0.202069     
0.643072     0.130364     0.0229965    0.202721     
0.64547      0.13127      0.0230575    0.203372     
0.647868     0.132179     0.0231182    0.204022     
0.650266     0.13309      0.0231786    0.20467      
0.652664     0.134003     0.0232388    0.205317     
0.655062     0.134919     0.0232987    0.205964     
0.65746      0.135837     0.0233583    0.206609     
0.659858     0.136757     0.0234177    0.207253     
0.662256     0.13768      0.0234768    0.207896     
0.664654     0.138605     0.0235357    0.208537     
0.667052     0.139532     0.0235943    0.209178     
0.66945      0.140462     0.0236526    0.209817     
0.671848     0.141394     0.0237106    0.210455     
0.674246     0.142328     0.0237684    0.211092     
0.676644     0.143265     0.023826     0.211728     
0.679042     0.144203     0.0238832    0.212363     
0.68144      0.145144     0.0239402    0.212997     
0.683838     0.146088     0.0239969    0.213629     
0.686236     0.147033     0.0240534    0.21426      
0.688634     0.147981     0.0241095    0.21489      
0.691032     0.148931     0.0241654    0.215519     
0.69343      0.149883     0.0242211    0.216147     
0.695828     0.150837     0.0242764    0.216773     
0.698226     0.151793     0.0243315    0.217398     
0.700624     0.152752     0.0243863    0.218023     
0.703022     0.153713     0.0244409    0.218645     
0.70542      0.154675     0.0244951    0.219267     
0.707818     0.15564      0.0245491    0.219888     
0.710216     0.156608     0.0246029    0.220507     
0.712614     0.157577     0.0246563    0.221125     
0.715012     0.158548     0.0247094    0.221742     
0.71741      0.159522     0.0247623    0.222358     
0.719808     0.160497     0.0248149    0.222972     
0.722206     0.161475     0.0248673    0.223585     
0.724604     0.162454     0.0249193    0.224197     
0.727002     0.163436     0.0249711    0.224808     
0.7294       0.16442      0.0250226    0.225417     
0.731798     0.165405     0.0250738    0.226026     
0.734196     0.166393     0.0251247    0.226633     
0.736594     0.167383     0.0251753    0.227239     
0.738992     0.168374     0.0252257    0.227843     
0.74139      0.169368     0.0252758    0.228447     
0.743788     0.170364     0.0253256    0.229049     
0.746186     0.171361     0.0253751    0.22965      
0.748584     0.172361     0.0254243    0.230249     
0.750982     0.173362     0.0254732    0.230847     
0.75338      0.174366     0.0255219    0.231444     
0.755778     0.175371     0.0255702    0.23204      
0.758176     0.176378     0.0256183    0.232635     
0.760574     0.177387     0.0256661    0.233228     
0.762972     0.178398     0.0257136    0.23382      
0.76537      0.179411     0.0257608    0.234411     
0.767768     0.180426     0.0258078    0.235        
0.770166     0.181442     0.0258544    0.235588     
0.772564     0.18246      0.0259007    0.236175     
0.774962     0.183481     0.0259468    0.236761     
0.77736      0.184503     0.0259926    0.237345     
0.779758     0.185526     0.026038     0.237928     
0.782156     0.186552     0.0260832    0.23851      
0.784554     0.187579     0.0261281    0.23909      
0.786952     0.188608     0.0261727    0.239669     
0.78935      0.189639     0.026217     0.240247     
0.791748     0.190672     0.026261     0.240824     
0.794146     0.191706     0.0263047    0.241399     
0.796544     0.192742     0.0263482    0.241973     
0.798942     0.19378      0.0263913    0.242545     
0.80134      0.194819     0.0264341    0.243117     
0.803738     0.19586      0.0264766    0.243687     
0.806136     0.196903     0.0265189    0.244255     
0.808534     0.197947     0.0265608    0.244823     
0.810932     0.198993     0.0266025    0.245389     
0.81333      0.200041     0.0266438    0.245953     
0.815728     0.20109      0.0266848    0.246516     
0.818126     0.202141     0.0267256    0.247078     
0.820524     0.203194     0.026766     0.247639     
0.822922     0.204248     0.0268062    0.248198     
0.82532      0.205304     0.026846     0.248756     
0.827718     0.206361     0.0268856    0.249313     
0.830116     0.20742      0.0269248    0.249868     
0.832514     0.20848      0.0269638    0.250422     
0.834912     0.209542     0.0270024    0.250975     
0.83731      0.210605     0.0270408    0.251526     
0.839708     0.21167      0.0270788    0.252076     
0.842106     0.212736     0.0271165    0.252624     
0.844504     0.213804     0.027154     0.253171     
0.846902     0.214873     0.0271911    0.253717     
0.8493       0.215944     0.0272279    0.254261     
0.851698     0.217016     0.0272644    0.254804     
0.854096     0.21809      0.0273007    0.255346     
0.856494     0.219165     0.0273366    0.255886     
0.858892     0.220242     0.0273722    0.256425     
0.86129      0.221319     0.0274075    0.256963     
0.863688     0.222399     0.0274425    0.257499     
0.866086     0.223479     0.0274772    0.258034     
0.868484     0.224561     0.0275115    0.258567     
0.870882     0.225645     0.0275456    0.259099     
0.87328      0.226729     0.0275794    0.259629     
0.875678     0.227815     0.0276128    0.260159     
0.878076     0.228902     0.027646     0.260686     
0.880474     0.229991     0.0276788    0.261213     
0.882872     0.231081     0.0277113    0.261738     
0.88527      0.232172     0.0277436    0.262261     
0.887668     0.233264     0.0277755    0.262783     
0.890066     0.234358     0.0278071    0.263304     
0.892464     0.235453     0.0278384    0.263823     
0.894862     0.236549     0.0278693    0.264341     
0.89726      0.237646     0.0279       0.264858     
