# Mass = 0.0479598 Mev*(hbarc)^2/2 
# R = 7.46549 fm 
# a = 0.662 fm 
# V0 = 59.5769 MeV 
# RSO = 6.87299 fm 
# aSO = 0.662 fm 
# VSO = 28.0171 MeV fm^2
# Rc = 7.46549 fm
# Zc = 81
# n = 0 
# l = 2 
# two_j = 5 
# two_t = 1 
# Energy = -26.4057 MeV
# r          u            Phi          u/r          
0.01         1.3831e-08   1.00476e-08  1.3831e-06   
0.012398     2.63577e-08  1.54442e-08  2.12596e-06  
0.014796     4.48007e-08  2.19963e-08  3.02789e-06  
0.017194     7.03042e-08  2.97039e-08  4.08888e-06  
0.019592     1.04012e-07  3.85669e-08  5.30893e-06  
0.02199      1.4707e-07   4.85853e-08  6.68803e-06  
0.024388     2.0062e-07   5.97591e-08  8.22618e-06  
0.026786     2.65808e-07  7.20882e-08  9.92339e-06  
0.029184     3.43777e-07  8.55726e-08  1.17796e-05  
0.031582     4.35671e-07  1.00212e-07  1.37949e-05  
0.03398      5.42635e-07  1.16007e-07  1.59693e-05  
0.036378     6.65812e-07  1.32957e-07  1.83026e-05  
0.038776     8.06347e-07  1.51062e-07  2.0795e-05   
0.041174     9.65382e-07  1.70322e-07  2.34464e-05  
0.043572     1.14406e-06  1.90737e-07  2.62568e-05  
0.04597      1.34353e-06  2.12307e-07  2.92262e-05  
0.048368     1.56493e-06  2.35031e-07  3.23547e-05  
0.050766     1.80941e-06  2.5891e-07   3.56421e-05  
0.053164     2.0781e-06   2.83944e-07  3.90885e-05  
0.055562     2.37216e-06  3.10132e-07  4.26939e-05  
0.05796      2.69272e-06  3.37475e-07  4.64582e-05  
0.060358     3.04093e-06  3.65971e-07  5.03815e-05  
0.062756     3.41793e-06  3.95622e-07  5.44638e-05  
0.065154     3.82486e-06  4.26427e-07  5.8705e-05   
0.067552     4.26288e-06  4.58386e-07  6.31051e-05  
0.06995      4.73311e-06  4.91499e-07  6.76642e-05  
0.072348     5.2367e-06   5.25765e-07  7.23821e-05  
0.074746     5.7748e-06   5.61185e-07  7.7259e-05   
0.077144     6.34855e-06  5.97759e-07  8.22948e-05  
0.079542     6.95908e-06  6.35485e-07  8.74894e-05  
0.08194      7.60755e-06  6.74365e-07  9.28429e-05  
0.084338     8.29509e-06  7.14397e-07  9.83553e-05  
0.086736     9.02284e-06  7.55583e-07  0.000104026  
0.089134     9.79195e-06  7.97921e-07  0.000109856  
0.091532     1.06036e-05  8.41412e-07  0.000115845  
0.09393      1.14588e-05  8.86055e-07  0.000121993  
0.096328     1.23588e-05  9.3185e-07   0.000128299  
0.098726     1.33048e-05  9.78797e-07  0.000134765  
0.101124     1.42978e-05  1.0269e-06   0.000141389  
0.103522     1.5339e-05   1.07615e-06  0.000148171  
0.10592      1.64295e-05  1.12655e-06  0.000155113  
0.108318     1.75706e-05  1.1781e-06   0.000162213  
0.110716     1.87632e-05  1.2308e-06   0.000169472  
0.113114     2.00086e-05  1.28466e-06  0.000176889  
0.115512     2.13079e-05  1.33967e-06  0.000184465  
0.11791      2.26623e-05  1.39582e-06  0.0001922    
0.120308     2.40728e-05  1.45313e-06  0.000200093  
0.122706     2.55407e-05  1.51158e-06  0.000208145  
0.125104     2.7067e-05   1.57119e-06  0.000216356  
0.127502     2.86529e-05  1.63194e-06  0.000224725  
0.1299       3.02996e-05  1.69385e-06  0.000233253  
0.132298     3.20081e-05  1.7569e-06   0.000241939  
0.134696     3.37796e-05  1.82111e-06  0.000250784  
0.137094     3.56153e-05  1.88646e-06  0.000259787  
0.139492     3.75162e-05  1.95296e-06  0.000268949  
0.14189      3.94836e-05  2.0206e-06   0.000278269  
0.144288     4.15185e-05  2.0894e-06   0.000287748  
0.146686     4.36222e-05  2.15934e-06  0.000297385  
0.149084     4.57956e-05  2.23043e-06  0.00030718   
0.151482     4.80401e-05  2.30267e-06  0.000317134  
0.15388      5.03566e-05  2.37605e-06  0.000327246  
0.156278     5.27464e-05  2.45058e-06  0.000337516  
0.158676     5.52105e-05  2.52626e-06  0.000347945  
0.161074     5.77502e-05  2.60308e-06  0.000358532  
0.163472     6.03665e-05  2.68105e-06  0.000369277  
0.16587      6.30605e-05  2.76016e-06  0.00038018   
0.168268     6.58335e-05  2.84042e-06  0.000391242  
0.170666     6.86865e-05  2.92182e-06  0.000402462  
0.173064     7.16207e-05  3.00436e-06  0.00041384   
0.175462     7.46373e-05  3.08805e-06  0.000425376  
0.17786      7.77372e-05  3.17289e-06  0.00043707   
0.180258     8.09217e-05  3.25887e-06  0.000448922  
0.182656     8.4192e-05   3.34599e-06  0.000460932  
0.185054     8.75491e-05  3.43425e-06  0.0004731    
0.187452     9.09941e-05  3.52366e-06  0.000485426  
0.18985      9.45283e-05  3.6142e-06   0.00049791   
0.192248     9.81527e-05  3.70589e-06  0.000510552  
0.194646     0.000101868  3.79872e-06  0.000523352  
0.197044     0.000105677  3.89269e-06  0.00053631   
0.199442     0.000109579  3.9878e-06   0.000549425  
0.20184      0.000113575  4.08406e-06  0.000562699  
0.204238     0.000117668  4.18145e-06  0.00057613   
0.206636     0.000121857  4.27998e-06  0.000589719  
0.209034     0.000126145  4.37965e-06  0.000603465  
0.211432     0.000130532  4.48046e-06  0.00061737   
0.21383      0.000135019  4.58241e-06  0.000631431  
0.216228     0.000139608  4.68549e-06  0.000645651  
0.218626     0.000144299  4.78971e-06  0.000660028  
0.221024     0.000149095  4.89507e-06  0.000674563  
0.223422     0.000153995  5.00157e-06  0.000689255  
0.22582      0.000159001  5.1092e-06   0.000704104  
0.228218     0.000164114  5.21797e-06  0.000719111  
0.230616     0.000169336  5.32787e-06  0.000734276  
0.233014     0.000174667  5.43891e-06  0.000749598  
0.235412     0.000180108  5.55109e-06  0.000765077  
0.23781      0.000185661  5.66439e-06  0.000780713  
0.240208     0.000191327  5.77884e-06  0.000796507  
0.242606     0.000197107  5.89441e-06  0.000812458  
0.245004     0.000203002  6.01112e-06  0.000828566  
0.247402     0.000209013  6.12896e-06  0.000844831  
0.2498       0.000215141  6.24793e-06  0.000861254  
0.252198     0.000221388  6.36803e-06  0.000877833  
0.254596     0.000227754  6.48927e-06  0.000894569  
0.256994     0.000234241  6.61163e-06  0.000911463  
0.259392     0.000240849  6.73513e-06  0.000928513  
0.26179      0.00024758   6.85975e-06  0.000945721  
0.264188     0.000254436  6.98551e-06  0.000963085  
0.266586     0.000261416  7.11239e-06  0.000980606  
0.268984     0.000268522  7.2404e-06   0.000998284  
0.271382     0.000275756  7.36954e-06  0.00101612   
0.27378      0.000283119  7.4998e-06   0.00103411   
0.276178     0.000290611  7.63119e-06  0.00105226   
0.278576     0.000298233  7.76371e-06  0.00107056   
0.280974     0.000305987  7.89735e-06  0.00108902   
0.283372     0.000313875  8.03212e-06  0.00110764   
0.28577      0.000321896  8.16801e-06  0.00112642   
0.288168     0.000330052  8.30503e-06  0.00114535   
0.290566     0.000338345  8.44317e-06  0.00116443   
0.292964     0.000346775  8.58243e-06  0.00118368   
0.295362     0.000355343  8.72282e-06  0.00120308   
0.29776      0.000364051  8.86433e-06  0.00122263   
0.300158     0.0003729    9.00696e-06  0.00124235   
0.302556     0.000381891  9.15071e-06  0.00126221   
0.304954     0.000391024  9.29558e-06  0.00128224   
0.307352     0.000400302  9.44157e-06  0.00130242   
0.30975      0.000409724  9.58868e-06  0.00132276   
0.312148     0.000419293  9.7369e-06   0.00134325   
0.314546     0.000429009  9.88625e-06  0.0013639    
0.316944     0.000438874  1.00367e-05  0.0013847    
0.319342     0.000448888  1.01883e-05  0.00140566   
0.32174      0.000459053  1.0341e-05   0.00142678   
0.324138     0.000469369  1.04948e-05  0.00144805   
0.326536     0.000479839  1.06497e-05  0.00146948   
0.328934     0.000490462  1.08058e-05  0.00149107   
0.331332     0.00050124   1.09629e-05  0.0015128    
0.33373      0.000512175  1.11212e-05  0.0015347    
0.336128     0.000523267  1.12806e-05  0.00155675   
0.338526     0.000534517  1.14411e-05  0.00157896   
0.340924     0.000545927  1.16027e-05  0.00160132   
0.343322     0.000557498  1.17654e-05  0.00162383   
0.34572      0.00056923   1.19292e-05  0.0016465    
0.348118     0.000581125  1.20941e-05  0.00166933   
0.350516     0.000593183  1.22602e-05  0.00169231   
0.352914     0.000605407  1.24273e-05  0.00171545   
0.355312     0.000617797  1.25956e-05  0.00173874   
0.35771      0.000630354  1.2765e-05   0.00176219   
0.360108     0.000643079  1.29354e-05  0.00178579   
0.362506     0.000655974  1.3107e-05   0.00180955   
0.364904     0.000669039  1.32797e-05  0.00183346   
0.367302     0.000682275  1.34535e-05  0.00185753   
0.3697       0.000695684  1.36284e-05  0.00188175   
0.372098     0.000709267  1.38044e-05  0.00190613   
0.374496     0.000723025  1.39815e-05  0.00193066   
0.376894     0.000736959  1.41596e-05  0.00195535   
0.379292     0.00075107   1.43389e-05  0.00198019   
0.38169      0.000765359  1.45193e-05  0.00200518   
0.384088     0.000779827  1.47008e-05  0.00203033   
0.386486     0.000794475  1.48834e-05  0.00205564   
0.388884     0.000809305  1.50671e-05  0.0020811    
0.391282     0.000824317  1.52519e-05  0.00210671   
0.39368      0.000839512  1.54378e-05  0.00213247   
0.396078     0.000854893  1.56248e-05  0.00215839   
0.398476     0.000870459  1.58129e-05  0.00218447   
0.400874     0.000886211  1.6002e-05   0.0022107    
0.403272     0.000902152  1.61923e-05  0.00223708   
0.40567      0.000918282  1.63837e-05  0.00226362   
0.408068     0.000934601  1.65761e-05  0.00229031   
0.410466     0.000951112  1.67697e-05  0.00231715   
0.412864     0.000967815  1.69643e-05  0.00234415   
0.415262     0.000984711  1.716e-05    0.0023713    
0.41766      0.0010018    1.73568e-05  0.00239861   
0.420058     0.00101909   1.75547e-05  0.00242607   
0.422456     0.00103657   1.77537e-05  0.00245368   
0.424854     0.00105425   1.79538e-05  0.00248144   
0.427252     0.00107213   1.8155e-05   0.00250936   
0.42965      0.00109021   1.83572e-05  0.00253743   
0.432048     0.00110849   1.85605e-05  0.00256566   
0.434446     0.00112697   1.8765e-05   0.00259404   
0.436844     0.00114565   1.89705e-05  0.00262257   
0.439242     0.00116454   1.9177e-05   0.00265125   
0.44164      0.00118364   1.93847e-05  0.00268009   
0.444038     0.00120293   1.95934e-05  0.00270908   
0.446436     0.00122244   1.98033e-05  0.00273822   
0.448834     0.00124216   2.00142e-05  0.00276752   
0.451232     0.00126208   2.02261e-05  0.00279697   
0.45363      0.00128222   2.04392e-05  0.00282657   
0.456028     0.00130256   2.06533e-05  0.00285632   
0.458426     0.00132312   2.08685e-05  0.00288623   
0.460824     0.00134389   2.10848e-05  0.00291629   
0.463222     0.00136488   2.13022e-05  0.0029465    
0.46562      0.00138609   2.15206e-05  0.00297686   
0.468018     0.00140751   2.17401e-05  0.00300737   
0.470416     0.00142914   2.19607e-05  0.00303804   
0.472814     0.001451     2.21823e-05  0.00306886   
0.475212     0.00147308   2.2405e-05   0.00309983   
0.47761      0.00149538   2.26288e-05  0.00313095   
0.480008     0.0015179    2.28537e-05  0.00316223   
0.482406     0.00154064   2.30796e-05  0.00319366   
0.484804     0.00156361   2.33066e-05  0.00322523   
0.487202     0.0015868    2.35346e-05  0.00325696   
0.4896       0.00161022   2.37637e-05  0.00328884   
0.491998     0.00163387   2.39939e-05  0.00332088   
0.494396     0.00165774   2.42251e-05  0.00335306   
0.496794     0.00168184   2.44574e-05  0.0033854    
0.499192     0.00170618   2.46908e-05  0.00341788   
0.50159      0.00173075   2.49252e-05  0.00345052   
0.503988     0.00175555   2.51607e-05  0.00348331   
0.506386     0.00178058   2.53972e-05  0.00351625   
0.508784     0.00180585   2.56348e-05  0.00354934   
0.511182     0.00183135   2.58735e-05  0.00358258   
0.51358      0.00185709   2.61132e-05  0.00361597   
0.515978     0.00188307   2.63539e-05  0.00364952   
0.518376     0.00190929   2.65957e-05  0.00368321   
0.520774     0.00193575   2.68386e-05  0.00371706   
0.523172     0.00196244   2.70825e-05  0.00375105   
0.52557      0.00198938   2.73275e-05  0.00378519   
0.527968     0.00201657   2.75735e-05  0.00381949   
0.530366     0.002044     2.78206e-05  0.00385394   
0.532764     0.00207167   2.80687e-05  0.00388853   
0.535162     0.00209959   2.83179e-05  0.00392328   
0.53756      0.00212775   2.85681e-05  0.00395817   
0.539958     0.00215617   2.88193e-05  0.00399322   
0.542356     0.00218483   2.90716e-05  0.00402841   
0.544754     0.00221375   2.93249e-05  0.00406376   
0.547152     0.00224291   2.95793e-05  0.00409925   
0.54955      0.00227233   2.98347e-05  0.0041349    
0.551948     0.002302     3.00912e-05  0.00417069   
0.554346     0.00233193   3.03487e-05  0.00420663   
0.556744     0.00236211   3.06072e-05  0.00424273   
0.559142     0.00239255   3.08668e-05  0.00427897   
0.56154      0.00242325   3.11274e-05  0.00431536   
0.563938     0.0024542    3.1389e-05   0.0043519    
0.566336     0.00248541   3.16517e-05  0.00438859   
0.568734     0.00251689   3.19154e-05  0.00442542   
0.571132     0.00254863   3.21802e-05  0.00446241   
0.57353      0.00258062   3.24459e-05  0.00449955   
0.575928     0.00261289   3.27127e-05  0.00453683   
0.578326     0.00264541   3.29805e-05  0.00457426   
0.580724     0.00267821   3.32494e-05  0.00461184   
0.583122     0.00271127   3.35193e-05  0.00464957   
0.58552      0.00274459   3.37902e-05  0.00468745   
0.587918     0.00277819   3.40621e-05  0.00472547   
0.590316     0.00281206   3.43351e-05  0.00476365   
0.592714     0.00284619   3.4609e-05   0.00480197   
0.595112     0.0028806    3.4884e-05   0.00484044   
0.59751      0.00291528   3.516e-05    0.00487906   
0.599908     0.00295024   3.54371e-05  0.00491782   
0.602306     0.00298547   3.57151e-05  0.00495673   
0.604704     0.00302098   3.59942e-05  0.00499579   
0.607102     0.00305676   3.62743e-05  0.005035     
0.6095       0.00309282   3.65554e-05  0.00507436   
0.611898     0.00312916   3.68375e-05  0.00511386   
0.614296     0.00316578   3.71206e-05  0.00515351   
0.616694     0.00320268   3.74048e-05  0.00519331   
0.619092     0.00323986   3.76899e-05  0.00523325   
0.62149      0.00327733   3.7976e-05   0.00527334   
0.623888     0.00331508   3.82632e-05  0.00531358   
0.626286     0.00335311   3.85514e-05  0.00535396   
0.628684     0.00339143   3.88406e-05  0.00539449   
0.631082     0.00343004   3.91307e-05  0.00543517   
0.63348      0.00346893   3.94219e-05  0.00547599   
0.635878     0.00350812   3.97141e-05  0.00551696   
0.638276     0.00354759   4.00073e-05  0.00555808   
0.640674     0.00358735   4.03015e-05  0.00559934   
0.643072     0.00362741   4.05966e-05  0.00564075   
0.64547      0.00366776   4.08928e-05  0.00568231   
0.647868     0.0037084    4.119e-05    0.00572401   
0.650266     0.00374934   4.14882e-05  0.00576585   
0.652664     0.00379057   4.17873e-05  0.00580784   
0.655062     0.0038321    4.20875e-05  0.00584998   
0.65746      0.00387393   4.23886e-05  0.00589226   
0.659858     0.00391605   4.26908e-05  0.00593469   
0.662256     0.00395848   4.29939e-05  0.00597727   
0.664654     0.00400121   4.3298e-05   0.00601998   
0.667052     0.00404423   4.36031e-05  0.00606285   
0.66945      0.00408757   4.39092e-05  0.00610586   
0.671848     0.0041312    4.42163e-05  0.00614901   
0.674246     0.00417514   4.45243e-05  0.00619231   
0.676644     0.00421938   4.48334e-05  0.00623575   
0.679042     0.00426393   4.51434e-05  0.00627934   
0.68144      0.00430879   4.54544e-05  0.00632307   
0.683838     0.00435396   4.57663e-05  0.00636695   
0.686236     0.00439944   4.60793e-05  0.00641097   
0.688634     0.00444522   4.63932e-05  0.00645513   
0.691032     0.00449132   4.67081e-05  0.00649944   
0.69343      0.00453773   4.7024e-05   0.00654389   
0.695828     0.00458446   4.73408e-05  0.00658849   
0.698226     0.00463149   4.76587e-05  0.00663323   
0.700624     0.00467885   4.79774e-05  0.00667812   
0.703022     0.00472652   4.82972e-05  0.00672314   
0.70542      0.0047745    4.86179e-05  0.00676831   
0.707818     0.00482281   4.89396e-05  0.00681363   
0.710216     0.00487143   4.92622e-05  0.00685909   
0.712614     0.00492038   4.95859e-05  0.00690469   
0.715012     0.00496964   4.99104e-05  0.00695043   
0.71741      0.00501923   5.0236e-05   0.00699632   
0.719808     0.00506914   5.05625e-05  0.00704235   
0.722206     0.00511937   5.08899e-05  0.00708852   
0.724604     0.00516993   5.12183e-05  0.00713483   
0.727002     0.00522081   5.15477e-05  0.00718129   
0.7294       0.00527202   5.1878e-05   0.00722789   
0.731798     0.00532356   5.22093e-05  0.00727463   
0.734196     0.00537543   5.25415e-05  0.00732151   
0.736594     0.00542762   5.28747e-05  0.00736854   
0.738992     0.00548015   5.32088e-05  0.00741571   
0.74139      0.00553301   5.35439e-05  0.00746302   
0.743788     0.0055862    5.38799e-05  0.00751047   
0.746186     0.00563972   5.42168e-05  0.00755806   
0.748584     0.00569358   5.45548e-05  0.00760579   
0.750982     0.00574777   5.48936e-05  0.00765367   
0.75338      0.0058023    5.52334e-05  0.00770169   
0.755778     0.00585716   5.55741e-05  0.00774984   
0.758176     0.00591236   5.59158e-05  0.00779814   
0.760574     0.00596791   5.62584e-05  0.00784658   
0.762972     0.00602379   5.66019e-05  0.00789516   
0.76537      0.00608001   5.69464e-05  0.00794388   
0.767768     0.00613657   5.72918e-05  0.00799275   
0.770166     0.00619348   5.76381e-05  0.00804175   
0.772564     0.00625073   5.79854e-05  0.00809089   
0.774962     0.00630833   5.83336e-05  0.00814017   
0.77736      0.00636626   5.86827e-05  0.0081896    
0.779758     0.00642455   5.90327e-05  0.00823916   
0.782156     0.00648318   5.93837e-05  0.00828886   
0.784554     0.00654216   5.97356e-05  0.0083387    
0.786952     0.00660149   6.00884e-05  0.00838869   
0.78935      0.00666117   6.04421e-05  0.00843881   
0.791748     0.0067212    6.07968e-05  0.00848907   
0.794146     0.00678159   6.11523e-05  0.00853947   
0.796544     0.00684232   6.15088e-05  0.00859001   
0.798942     0.00690341   6.18662e-05  0.00864069   
0.80134      0.00696485   6.22245e-05  0.0086915    
0.803738     0.00702665   6.25837e-05  0.00874246   
0.806136     0.0070888    6.29439e-05  0.00879356   
0.808534     0.00715131   6.33049e-05  0.00884479   
0.810932     0.00721418   6.36668e-05  0.00889616   
0.81333      0.00727741   6.40297e-05  0.00894767   
0.815728     0.007341     6.43935e-05  0.00899932   
0.818126     0.00740494   6.47581e-05  0.00905111   
0.820524     0.00746925   6.51237e-05  0.00910303   
0.822922     0.00753393   6.54901e-05  0.00915509   
0.82532      0.00759896   6.58575e-05  0.00920729   
0.827718     0.00766436   6.62257e-05  0.00925963   
0.830116     0.00773013   6.65949e-05  0.0093121    
0.832514     0.00779626   6.69649e-05  0.00936472   
0.834912     0.00786276   6.73359e-05  0.00941747   
0.83731      0.00792962   6.77077e-05  0.00947035   
0.839708     0.00799686   6.80804e-05  0.00952338   
0.842106     0.00806446   6.8454e-05   0.00957654   
0.844504     0.00813243   6.88285e-05  0.00962983   
0.846902     0.00820078   6.92039e-05  0.00968327   
0.8493       0.0082695    6.95801e-05  0.00973684   
0.851698     0.00833859   6.99573e-05  0.00979054   
0.854096     0.00840805   7.03353e-05  0.00984439   
0.856494     0.00847789   7.07142e-05  0.00989837   
0.858892     0.00854811   7.1094e-05   0.00995248   
0.86129      0.0086187    7.14746e-05  0.0100067    
0.863688     0.00868967   7.18562e-05  0.0100611    
0.866086     0.00876101   7.22386e-05  0.0101156    
0.868484     0.00883274   7.26218e-05  0.0101703    
0.870882     0.00890485   7.3006e-05   0.0102251    
0.87328      0.00897733   7.3391e-05   0.01028      
0.875678     0.0090502    7.37769e-05  0.0103351    
0.878076     0.00912345   7.41636e-05  0.0103903    
0.880474     0.00919709   7.45512e-05  0.0104456    
0.882872     0.00927111   7.49397e-05  0.0105011    
0.88527      0.00934551   7.5329e-05   0.0105567    
0.887668     0.0094203    7.57192e-05  0.0106124    
0.890066     0.00949548   7.61102e-05  0.0106683    
0.892464     0.00957104   7.65021e-05  0.0107243    
0.894862     0.009647     7.68949e-05  0.0107804    
0.89726      0.00972334   7.72885e-05  0.0108367    
