# Mass = 0.0480256 Mev*(hbarc)^2/2 
# R = 7.46549 fm 
# a = 0.662 fm 
# V0 = 45.1828 MeV 
# RSO = 6.87299 fm 
# aSO = 0.662 fm 
# VSO = 27.9403 MeV fm^2
# Rc = 7.46549 fm
# Zc = 0
# n = 1 
# l = 1 
# two_j = 3 
# two_t = -1 
# Energy = -24.1173 MeV
# r          u            Phi          u/r          
0.01         1.60553e-05  2.5289e-06   0.00160553   
0.012398     2.46786e-05  3.13529e-06  0.00199053   
0.014796     3.51483e-05  3.74166e-06  0.00237553   
0.017194     4.74642e-05  4.348e-06    0.00276051   
0.019592     6.16263e-05  4.95432e-06  0.00314548   
0.02199      7.76345e-05  5.5606e-06   0.00353045   
0.024388     9.54887e-05  6.16684e-06  0.0039154    
0.026786     0.000115189  6.77303e-06  0.00430033   
0.029184     0.000136734  7.37919e-06  0.00468525   
0.031582     0.000160126  7.98528e-06  0.00507016   
0.03398      0.000185362  8.59133e-06  0.00545505   
0.036378     0.000212444  9.19731e-06  0.00583991   
0.038776     0.000241371  9.80323e-06  0.00622476   
0.041174     0.000272143  1.04091e-05  0.00660959   
0.043572     0.00030476   1.10149e-05  0.00699439   
0.04597      0.00033922   1.16206e-05  0.00737917   
0.048368     0.000375525  1.22262e-05  0.00776392   
0.050766     0.000413674  1.28317e-05  0.00814865   
0.053164     0.000453667  1.34372e-05  0.00853334   
0.055562     0.000495503  1.40425e-05  0.00891801   
0.05796      0.000539181  1.46478e-05  0.00930265   
0.060358     0.000584703  1.52529e-05  0.00968725   
0.062756     0.000632067  1.5858e-05   0.0100718    
0.065154     0.000681273  1.64629e-05  0.0104564    
0.067552     0.000732321  1.70677e-05  0.0108409    
0.06995      0.000785211  1.76724e-05  0.0112253    
0.072348     0.000839941  1.8277e-05   0.0116097    
0.074746     0.000896512  1.88814e-05  0.0119941    
0.077144     0.000954923  1.94858e-05  0.0123785    
0.079542     0.00101517   2.00899e-05  0.0127627    
0.08194      0.00107727   2.0694e-05   0.013147     
0.084338     0.00114119   2.12979e-05  0.0135312    
0.086736     0.00120696   2.19016e-05  0.0139154    
0.089134     0.00127457   2.25052e-05  0.0142995    
0.091532     0.00134401   2.31086e-05  0.0146835    
0.09393      0.00141529   2.37119e-05  0.0150675    
0.096328     0.00148841   2.4315e-05   0.0154515    
0.098726     0.00156337   2.4918e-05   0.0158354    
0.101124     0.00164015   2.55207e-05  0.0162192    
0.103522     0.00171878   2.61233e-05  0.016603     
0.10592      0.00179924   2.67257e-05  0.0169868    
0.108318     0.00188153   2.73279e-05  0.0173704    
0.110716     0.00196566   2.793e-05    0.017754     
0.113114     0.00205162   2.85318e-05  0.0181376    
0.115512     0.00213941   2.91334e-05  0.0185211    
0.11791      0.00222903   2.97349e-05  0.0189045    
0.120308     0.00232048   3.03361e-05  0.0192879    
0.122706     0.00241377   3.09371e-05  0.0196711    
0.125104     0.00250888   3.15379e-05  0.0200544    
0.127502     0.00260582   3.21385e-05  0.0204375    
0.1299       0.0027046    3.27388e-05  0.0208206    
0.132298     0.00280519   3.33389e-05  0.0212036    
0.134696     0.00290762   3.39388e-05  0.0215865    
0.137094     0.00301187   3.45385e-05  0.0219694    
0.139492     0.00311795   3.51379e-05  0.0223522    
0.14189      0.00322585   3.57371e-05  0.0227349    
0.144288     0.00333558   3.6336e-05   0.0231175    
0.146686     0.00344713   3.69346e-05  0.0235       
0.149084     0.0035605    3.7533e-05   0.0238825    
0.151482     0.00367569   3.81312e-05  0.0242649    
0.15388      0.0037927    3.8729e-05   0.0246472    
0.156278     0.00391154   3.93267e-05  0.0250294    
0.158676     0.00403219   3.9924e-05   0.0254115    
0.161074     0.00415466   4.0521e-05   0.0257935    
0.163472     0.00427895   4.11178e-05  0.0261755    
0.16587      0.00440506   4.17143e-05  0.0265573    
0.168268     0.00453298   4.23105e-05  0.0269391    
0.170666     0.00466272   4.29064e-05  0.0273207    
0.173064     0.00479427   4.35019e-05  0.0277023    
0.175462     0.00492763   4.40972e-05  0.0280838    
0.17786      0.00506281   4.46922e-05  0.0284651    
0.180258     0.00519979   4.52869e-05  0.0288464    
0.182656     0.00533859   4.58812e-05  0.0292276    
0.185054     0.0054792    4.64753e-05  0.0296086    
0.187452     0.00562161   4.7069e-05   0.0299896    
0.18985      0.00576583   4.76624e-05  0.0303705    
0.192248     0.00591186   4.82554e-05  0.0307512    
0.194646     0.00605969   4.88481e-05  0.0311319    
0.197044     0.00620933   4.94405e-05  0.0315124    
0.199442     0.00636077   5.00325e-05  0.0318928    
0.20184      0.00651401   5.06242e-05  0.0322732    
0.204238     0.00666906   5.12155e-05  0.0326534    
0.206636     0.0068259    5.18064e-05  0.0330335    
0.209034     0.00698454   5.2397e-05   0.0334134    
0.211432     0.00714498   5.29873e-05  0.0337933    
0.21383      0.00730722   5.35771e-05  0.034173     
0.216228     0.00747125   5.41666e-05  0.0345527    
0.218626     0.00763708   5.47557e-05  0.0349322    
0.221024     0.0078047    5.53445e-05  0.0353115    
0.223422     0.00797411   5.59328e-05  0.0356908    
0.22582      0.00814531   5.65207e-05  0.0360699    
0.228218     0.00831831   5.71083e-05  0.0364489    
0.230616     0.00849309   5.76954e-05  0.0368278    
0.233014     0.00866965   5.82822e-05  0.0372066    
0.235412     0.00884801   5.88685e-05  0.0375852    
0.23781      0.00902815   5.94545e-05  0.0379637    
0.240208     0.00921007   6.004e-05    0.038342     
0.242606     0.00939377   6.06251e-05  0.0387203    
0.245004     0.00957926   6.12098e-05  0.0390984    
0.247402     0.00976652   6.1794e-05   0.0394763    
0.2498       0.00995556   6.23778e-05  0.0398541    
0.252198     0.0101464    6.29612e-05  0.0402318    
0.254596     0.010339     6.35441e-05  0.0406093    
0.256994     0.0105333    6.41266e-05  0.0409867    
0.259392     0.0107295    6.47087e-05  0.041364     
0.26179      0.0109274    6.52902e-05  0.0417411    
0.264188     0.0111271    6.58714e-05  0.0421181    
0.266586     0.0113285    6.64521e-05  0.0424949    
0.268984     0.0115318    6.70323e-05  0.0428716    
0.271382     0.0117367    6.7612e-05   0.0432481    
0.27378      0.0119435    6.81913e-05  0.0436244    
0.276178     0.012152     6.87701e-05  0.0440007    
0.278576     0.0123623    6.93484e-05  0.0443767    
0.280974     0.0125743    6.99262e-05  0.0447526    
0.283372     0.0127881    7.05035e-05  0.0451284    
0.28577      0.0130037    7.10804e-05  0.045504     
0.288168     0.013221     7.16567e-05  0.0458794    
0.290566     0.01344      7.22326e-05  0.0462547    
0.292964     0.0136609    7.28079e-05  0.0466298    
0.295362     0.0138834    7.33827e-05  0.0470047    
0.29776      0.0141077    7.3957e-05   0.0473795    
0.300158     0.0143338    7.45308e-05  0.0477542    
0.302556     0.0145616    7.51041e-05  0.0481286    
0.304954     0.0147912    7.56769e-05  0.0485029    
0.307352     0.0150224    7.62491e-05  0.048877     
0.30975      0.0152555    7.68208e-05  0.049251     
0.312148     0.0154903    7.73919e-05  0.0496247    
0.314546     0.0157268    7.79625e-05  0.0499984    
0.316944     0.015965     7.85326e-05  0.0503718    
0.319342     0.016205     7.91021e-05  0.050745     
0.32174      0.0164467    7.96711e-05  0.0511181    
0.324138     0.0166902    8.02395e-05  0.051491     
0.326536     0.0169354    8.08073e-05  0.0518637    
0.328934     0.0171823    8.13746e-05  0.0522363    
0.331332     0.0174309    8.19413e-05  0.0526086    
0.33373      0.0176813    8.25075e-05  0.0529808    
0.336128     0.0179334    8.3073e-05   0.0533528    
0.338526     0.0181872    8.3638e-05   0.0537246    
0.340924     0.0184427    8.42024e-05  0.0540962    
0.343322     0.0186999    8.47662e-05  0.0544677    
0.34572      0.0189589    8.53294e-05  0.0548389    
0.348118     0.0192196    8.5892e-05   0.0552099    
0.350516     0.019482     8.6454e-05   0.0555808    
0.352914     0.0197461    8.70154e-05  0.0559515    
0.355312     0.0200119    8.75762e-05  0.0563219    
0.35771      0.0202794    8.81364e-05  0.0566922    
0.360108     0.0205486    8.86959e-05  0.0570623    
0.362506     0.0208195    8.92549e-05  0.0574321    
0.364904     0.0210921    8.98132e-05  0.0578018    
0.367302     0.0213664    9.03709e-05  0.0581713    
0.3697       0.0216424    9.0928e-05   0.0585406    
0.372098     0.0219202    9.14844e-05  0.0589096    
0.374496     0.0221996    9.20402e-05  0.0592785    
0.376894     0.0224807    9.25953e-05  0.0596472    
0.379292     0.0227634    9.31498e-05  0.0600156    
0.38169      0.0230479    9.37036e-05  0.0603838    
0.384088     0.0233341    9.42568e-05  0.0607519    
0.386486     0.0236219    9.48093e-05  0.0611197    
0.388884     0.0239114    9.53612e-05  0.0614873    
0.391282     0.0242026    9.59123e-05  0.0618547    
0.39368      0.0244955    9.64629e-05  0.0622219    
0.396078     0.0247901    9.70127e-05  0.0625888    
0.398476     0.0250863    9.75619e-05  0.0629556    
0.400874     0.0253842    9.81103e-05  0.0633221    
0.403272     0.0256837    9.86581e-05  0.0636884    
0.40567      0.025985     9.92052e-05  0.0640545    
0.408068     0.0262879    9.97516e-05  0.0644203    
0.410466     0.0265924    0.000100297  0.064786     
0.412864     0.0268987    0.000100842  0.0651514    
0.415262     0.0272065    0.000101387  0.0655166    
0.41766      0.0275161    0.00010193   0.0658815    
0.420058     0.0278273    0.000102473  0.0662462    
0.422456     0.0281401    0.000103015  0.0666107    
0.424854     0.0284546    0.000103557  0.066975     
0.427252     0.0287707    0.000104097  0.067339     
0.42965      0.0290885    0.000104637  0.0677028    
0.432048     0.0294079    0.000105177  0.0680664    
0.434446     0.029729     0.000105715  0.0684297    
0.436844     0.0300517    0.000106253  0.0687928    
0.439242     0.0303761    0.00010679   0.0691556    
0.44164      0.030702     0.000107326  0.0695182    
0.444038     0.0310296    0.000107862  0.0698806    
0.446436     0.0313589    0.000108396  0.0702427    
0.448834     0.0316897    0.00010893   0.0706046    
0.451232     0.0320222    0.000109464  0.0709662    
0.45363      0.0323563    0.000109996  0.0713276    
0.456028     0.0326921    0.000110528  0.0716887    
0.458426     0.0330294    0.000111059  0.0720496    
0.460824     0.0333684    0.000111589  0.0724103    
0.463222     0.033709     0.000112118  0.0727706    
0.46562      0.0340512    0.000112647  0.0731308    
0.468018     0.034395     0.000113174  0.0734907    
0.470416     0.0347404    0.000113701  0.0738503    
0.472814     0.0350874    0.000114228  0.0742096    
0.475212     0.035436     0.000114753  0.0745688    
0.47761      0.0357862    0.000115278  0.0749276    
0.480008     0.036138     0.000115801  0.0752862    
0.482406     0.0364914    0.000116324  0.0756445    
0.484804     0.0368464    0.000116847  0.0760026    
0.487202     0.0372029    0.000117368  0.0763604    
0.4896       0.0375611    0.000117888  0.0767179    
0.491998     0.0379208    0.000118408  0.0770752    
0.494396     0.0382822    0.000118927  0.0774322    
0.496794     0.0386451    0.000119445  0.0777889    
0.499192     0.0390095    0.000119962  0.0781454    
0.50159      0.0393756    0.000120478  0.0785016    
0.503988     0.0397432    0.000120994  0.0788575    
0.506386     0.0401124    0.000121508  0.0792131    
0.508784     0.0404832    0.000122022  0.0795685    
0.511182     0.0408555    0.000122535  0.0799236    
0.51358      0.0412294    0.000123047  0.0802784    
0.515978     0.0416048    0.000123558  0.0806329    
0.518376     0.0419818    0.000124069  0.0809872    
0.520774     0.0423604    0.000124578  0.0813411    
0.523172     0.0427404    0.000125087  0.0816948    
0.52557      0.0431221    0.000125594  0.0820482    
0.527968     0.0435053    0.000126101  0.0824014    
0.530366     0.04389      0.000126607  0.0827542    
0.532764     0.0442763    0.000127112  0.0831067    
0.535162     0.0446641    0.000127616  0.083459     
0.53756      0.0450534    0.00012812   0.083811     
0.539958     0.0454443    0.000128622  0.0841627    
0.542356     0.0458367    0.000129123  0.084514     
0.544754     0.0462306    0.000129624  0.0848651    
0.547152     0.0466261    0.000130124  0.0852159    
0.54955      0.047023     0.000130622  0.0855664    
0.551948     0.0474215    0.00013112   0.0859166    
0.554346     0.0478215    0.000131617  0.0862666    
0.556744     0.048223     0.000132113  0.0866162    
0.559142     0.0486261    0.000132608  0.0869655    
0.56154      0.0490306    0.000133102  0.0873145    
0.563938     0.0494366    0.000133595  0.0876632    
0.566336     0.0498441    0.000134088  0.0880116    
0.568734     0.0502532    0.000134579  0.0883597    
0.571132     0.0506637    0.000135069  0.0887075    
0.57353      0.0510757    0.000135558  0.089055     
0.575928     0.0514892    0.000136047  0.0894021    
0.578326     0.0519042    0.000136534  0.089749     
0.580724     0.0523206    0.000137021  0.0900955    
0.583122     0.0527386    0.000137506  0.0904418    
0.58552      0.053158     0.000137991  0.0907877    
0.587918     0.0535789    0.000138475  0.0911333    
0.590316     0.0540013    0.000138957  0.0914786    
0.592714     0.0544251    0.000139439  0.0918236    
0.595112     0.0548504    0.00013992   0.0921682    
0.59751      0.0552772    0.000140399  0.0925126    
0.599908     0.0557054    0.000140878  0.0928566    
0.602306     0.0561351    0.000141356  0.0932003    
0.604704     0.0565662    0.000141832  0.0935437    
0.607102     0.0569988    0.000142308  0.0938867    
0.6095       0.0574328    0.000142783  0.0942294    
0.611898     0.0578683    0.000143256  0.0945718    
0.614296     0.0583052    0.000143729  0.0949139    
0.616694     0.0587436    0.000144201  0.0952556    
0.619092     0.0591834    0.000144672  0.0955971    
0.62149      0.0596246    0.000145141  0.0959381    
0.623888     0.0600672    0.00014561   0.0962789    
0.626286     0.0605113    0.000146077  0.0966193    
0.628684     0.0609568    0.000146544  0.0969594    
0.631082     0.0614037    0.00014701   0.0972991    
0.63348      0.0618521    0.000147474  0.0976385    
0.635878     0.0623018    0.000147938  0.0979776    
0.638276     0.0627529    0.0001484    0.0983163    
0.640674     0.0632055    0.000148861  0.0986547    
0.643072     0.0636595    0.000149322  0.0989928    
0.64547      0.0641148    0.000149781  0.0993305    
0.647868     0.0645716    0.000150239  0.0996678    
0.650266     0.0650297    0.000150696  0.100005     
0.652664     0.0654893    0.000151152  0.100341     
0.655062     0.0659502    0.000151607  0.100678     
0.65746      0.0664125    0.000152061  0.101014     
0.659858     0.0668762    0.000152514  0.101349     
0.662256     0.0673413    0.000152966  0.101685     
0.664654     0.0678077    0.000153417  0.10202      
0.667052     0.0682756    0.000153867  0.102354     
0.66945      0.0687447    0.000154315  0.102688     
0.671848     0.0692153    0.000154763  0.103022     
0.674246     0.0696872    0.000155209  0.103356     
0.676644     0.0701605    0.000155654  0.103689     
0.679042     0.0706351    0.000156098  0.104022     
0.68144      0.0711111    0.000156542  0.104354     
0.683838     0.0715884    0.000156984  0.104686     
0.686236     0.072067     0.000157424  0.105018     
0.688634     0.072547     0.000157864  0.105349     
0.691032     0.0730284    0.000158303  0.10568      
0.69343      0.0735111    0.00015874   0.106011     
0.695828     0.0739951    0.000159177  0.106341     
0.698226     0.0744804    0.000159612  0.106671     
0.700624     0.0749671    0.000160046  0.107        
0.703022     0.075455     0.000160479  0.10733      
0.70542      0.0759443    0.000160911  0.107658     
0.707818     0.0764349    0.000161342  0.107987     
0.710216     0.0769269    0.000161772  0.108315     
0.712614     0.0774201    0.0001622    0.108642     
0.715012     0.0779146    0.000162628  0.10897      
0.71741      0.0784104    0.000163054  0.109297     
0.719808     0.0789076    0.000163479  0.109623     
0.722206     0.079406     0.000163903  0.109949     
0.724604     0.0799057    0.000164325  0.110275     
0.727002     0.0804067    0.000164747  0.1106       
0.7294       0.0809089    0.000165167  0.110925     
0.731798     0.0814125    0.000165587  0.11125      
0.734196     0.0819173    0.000166005  0.111574     
0.736594     0.0824234    0.000166422  0.111898     
0.738992     0.0829308    0.000166837  0.112221     
0.74139      0.0834394    0.000167252  0.112545     
0.743788     0.0839493    0.000167665  0.112867     
0.746186     0.0844604    0.000168077  0.11319      
0.748584     0.0849728    0.000168488  0.113511     
0.750982     0.0854865    0.000168898  0.113833     
0.75338      0.0860014    0.000169307  0.114154     
0.755778     0.0865175    0.000169714  0.114475     
0.758176     0.0870349    0.00017012   0.114795     
0.760574     0.0875535    0.000170525  0.115115     
0.762972     0.0880733    0.000170929  0.115435     
0.76537      0.0885944    0.000171332  0.115754     
0.767768     0.0891167    0.000171733  0.116072     
0.770166     0.0896402    0.000172133  0.116391     
0.772564     0.0901649    0.000172532  0.116709     
0.774962     0.0906909    0.00017293   0.117026     
0.77736      0.091218     0.000173326  0.117343     
0.779758     0.0917464    0.000173722  0.11766      
0.782156     0.0922759    0.000174116  0.117976     
0.784554     0.0928067    0.000174508  0.118292     
0.786952     0.0933386    0.0001749    0.118608     
0.78935      0.0938718    0.00017529   0.118923     
0.791748     0.0944061    0.000175679  0.119238     
0.794146     0.0949416    0.000176067  0.119552     
0.796544     0.0954783    0.000176454  0.119866     
0.798942     0.0960161    0.000176839  0.120179     
0.80134      0.0965552    0.000177223  0.120492     
0.803738     0.0970954    0.000177606  0.120805     
0.806136     0.0976367    0.000177988  0.121117     
0.808534     0.0981793    0.000178368  0.121429     
0.810932     0.098723     0.000178747  0.12174      
0.81333      0.0992678    0.000179125  0.122051     
0.815728     0.0998138    0.000179501  0.122362     
0.818126     0.100361     0.000179876  0.122672     
0.820524     0.100909     0.00018025   0.122981     
0.822922     0.101459     0.000180623  0.123291     
0.82532      0.102009     0.000180994  0.123599     
0.827718     0.102561     0.000181364  0.123908     
0.830116     0.103114     0.000181733  0.124216     
0.832514     0.103667     0.000182101  0.124523     
0.834912     0.104223     0.000182467  0.124831     
0.83731      0.104779     0.000182832  0.125137     
0.839708     0.105336     0.000183196  0.125443     
0.842106     0.105894     0.000183558  0.125749     
0.844504     0.106454     0.000183919  0.126055     
0.846902     0.107014     0.000184279  0.12636      
0.8493       0.107576     0.000184637  0.126664     
0.851698     0.108139     0.000184994  0.126968     
0.854096     0.108702     0.00018535   0.127272     
0.856494     0.109267     0.000185705  0.127575     
0.858892     0.109833     0.000186058  0.127878     
0.86129      0.1104       0.00018641   0.12818      
0.863688     0.110969     0.00018676   0.128482     
0.866086     0.111538     0.000187109  0.128784     
0.868484     0.112108     0.000187457  0.129085     
0.870882     0.112679     0.000187804  0.129385     
0.87328      0.113252     0.000188149  0.129685     
0.875678     0.113825     0.000188493  0.129985     
0.878076     0.1144       0.000188835  0.130284     
0.880474     0.114975     0.000189177  0.130583     
0.882872     0.115552     0.000189516  0.130881     
0.88527      0.116129     0.000189855  0.131179     
0.887668     0.116708     0.000190192  0.131477     
0.890066     0.117287     0.000190528  0.131774     
0.892464     0.117868     0.000190862  0.13207      
0.894862     0.11845      0.000191195  0.132366     
0.89726      0.119032     0.000191527  0.132662     
