# Mass = 0.0480256 Mev*(hbarc)^2/2 
# R = 7.46549 fm 
# a = 0.662 fm 
# V0 = 45.1828 MeV 
# RSO = 6.87299 fm 
# aSO = 0.662 fm 
# VSO = 27.9403 MeV fm^2
# Rc = 7.46549 fm
# Zc = 0
# n = 1 
# l = 3 
# two_j = 7 
# two_t = -1 
# Energy = -10.7235 MeV
# r          u            Phi          u/r          
0.01         1.17666e-10  4.38819e-10  1.17666e-08  
0.012398     2.78008e-10  8.36251e-10  2.24236e-08  
0.014796     5.63931e-10  1.42138e-09  3.81137e-08  
0.017194     1.02838e-09  2.23051e-09  5.98103e-08  
0.019592     1.73363e-09  3.29992e-09  8.84868e-08  
0.02199      2.75131e-09  4.66592e-09  1.25116e-07  
0.024388     4.16235e-09  6.36478e-09  1.70672e-07  
0.026786     6.05704e-09  8.43279e-09  2.26127e-07  
0.029184     8.53498e-09  1.09062e-08  2.92454e-07  
0.031582     1.17051e-08  1.38213e-08  3.70626e-07  
0.03398      1.56857e-08  1.72144e-08  4.61616e-07  
0.036378     2.06044e-08  2.11216e-08  5.66397e-07  
0.038776     2.6598e-08   2.55793e-08  6.8594e-07   
0.041174     3.38128e-08  3.06237e-08  8.21218e-07  
0.043572     4.24044e-08  3.6291e-08   9.73204e-07  
0.04597      5.25377e-08  4.26174e-08  1.14287e-06  
0.048368     6.43867e-08  4.96392e-08  1.33118e-06  
0.050766     7.81351e-08  5.73924e-08  1.53912e-06  
0.053164     9.39756e-08  6.59134e-08  1.76765e-06  
0.055562     1.1211e-07   7.52383e-08  2.01775e-06  
0.05796      1.32751e-07  8.54032e-08  2.29038e-06  
0.060358     1.56117e-07  9.64443e-08  2.58652e-06  
0.062756     1.8244e-07   1.08398e-07  2.90714e-06  
0.065154     2.11959e-07  1.213e-07    3.2532e-06   
0.067552     2.44922e-07  1.35186e-07  3.62568e-06  
0.06995      2.81587e-07  1.50093e-07  4.02555e-06  
0.072348     3.22221e-07  1.66057e-07  4.45377e-06  
0.074746     3.67101e-07  1.83113e-07  4.91132e-06  
0.077144     4.16512e-07  2.01298e-07  5.39916e-06  
0.079542     4.7075e-07   2.20648e-07  5.91826e-06  
0.08194      5.30118e-07  2.41199e-07  6.46959e-06  
0.084338     5.9493e-07   2.62987e-07  7.05412e-06  
0.086736     6.65509e-07  2.86047e-07  7.67281e-06  
0.089134     7.42187e-07  3.10416e-07  8.32664e-06  
0.091532     8.25304e-07  3.3613e-07   9.01657e-06  
0.09393      9.15212e-07  3.63224e-07  9.74356e-06  
0.096328     1.01227e-06  3.91734e-07  1.05086e-05  
0.098726     1.11685e-06  4.21697e-07  1.13126e-05  
0.101124     1.22932e-06  4.53148e-07  1.21566e-05  
0.103522     1.35008e-06  4.86123e-07  1.30415e-05  
0.10592      1.47952e-06  5.20657e-07  1.39683e-05  
0.108318     1.61805e-06  5.56787e-07  1.49379e-05  
0.110716     1.76607e-06  5.94548e-07  1.59514e-05  
0.113114     1.92403e-06  6.33975e-07  1.70096e-05  
0.115512     2.09234e-06  6.75106e-07  1.81136e-05  
0.11791      2.27146e-06  7.17974e-07  1.92643e-05  
0.120308     2.46182e-06  7.62616e-07  2.04627e-05  
0.122706     2.6639e-06   8.09068e-07  2.17097e-05  
0.125104     2.87817e-06  8.57365e-07  2.30062e-05  
0.127502     3.1051e-06   9.07542e-07  2.43533e-05  
0.1299       3.34518e-06  9.59635e-07  2.5752e-05   
0.132298     3.59891e-06  1.01368e-06  2.7203e-05   
0.134696     3.86679e-06  1.06971e-06  2.87076e-05  
0.137094     4.14935e-06  1.12777e-06  3.02664e-05  
0.139492     4.4471e-06   1.18788e-06  3.18807e-05  
0.14189      4.76058e-06  1.25008e-06  3.35512e-05  
0.144288     5.09033e-06  1.31442e-06  3.5279e-05   
0.146686     5.43691e-06  1.38091e-06  3.70649e-05  
0.149084     5.80087e-06  1.44961e-06  3.89101e-05  
0.151482     6.18279e-06  1.52054e-06  4.08153e-05  
0.15388      6.58324e-06  1.59374e-06  4.27816e-05  
0.156278     7.00281e-06  1.66924e-06  4.481e-05    
0.158676     7.44211e-06  1.74709e-06  4.69013e-05  
0.161074     7.90173e-06  1.82731e-06  4.90565e-05  
0.163472     8.38229e-06  1.90993e-06  5.12766e-05  
0.16587      8.88442e-06  1.99501e-06  5.35625e-05  
0.168268     9.40875e-06  2.08256e-06  5.59152e-05  
0.170666     9.95592e-06  2.17263e-06  5.83357e-05  
0.173064     1.05266e-05  2.26524e-06  6.08248e-05  
0.175462     1.11214e-05  2.36044e-06  6.33835e-05  
0.17786      1.1741e-05   2.45826e-06  6.60127e-05  
0.180258     1.23862e-05  2.55874e-06  6.87135e-05  
0.182656     1.30575e-05  2.6619e-06   7.14868e-05  
0.185054     1.37557e-05  2.76778e-06  7.43334e-05  
0.187452     1.44815e-05  2.87643e-06  7.72544e-05  
0.18985      1.52356e-05  2.98786e-06  8.02506e-05  
0.192248     1.60187e-05  3.10213e-06  8.33231e-05  
0.194646     1.68316e-05  3.21925e-06  8.64728e-05  
0.197044     1.7675e-05   3.33927e-06  8.97006e-05  
0.199442     1.85496e-05  3.46222e-06  9.30074e-05  
0.20184      1.94562e-05  3.58814e-06  9.63942e-05  
0.204238     2.03956e-05  3.71705e-06  9.98619e-05  
0.206636     2.13685e-05  3.849e-06    0.000103411  
0.209034     2.23758e-05  3.98401e-06  0.000107044  
0.211432     2.34182e-05  4.12213e-06  0.00011076   
0.21383      2.44965e-05  4.26338e-06  0.000114561  
0.216228     2.56116e-05  4.4078e-06   0.000118447  
0.218626     2.67642e-05  4.55543e-06  0.00012242   
0.221024     2.79552e-05  4.70629e-06  0.00012648   
0.223422     2.91854e-05  4.86042e-06  0.000130629  
0.22582      3.04557e-05  5.01786e-06  0.000134867  
0.228218     3.17669e-05  5.17864e-06  0.000139196  
0.230616     3.31199e-05  5.3428e-06   0.000143615  
0.233014     3.45156e-05  5.51036e-06  0.000148127  
0.235412     3.59548e-05  5.68135e-06  0.000152731  
0.23781      3.74384e-05  5.85583e-06  0.00015743   
0.240208     3.89673e-05  6.03381e-06  0.000162223  
0.242606     4.05425e-05  6.21533e-06  0.000167113  
0.245004     4.21649e-05  6.40043e-06  0.000172099  
0.247402     4.38353e-05  6.58913e-06  0.000177182  
0.2498       4.55547e-05  6.78148e-06  0.000182365  
0.252198     4.7324e-05   6.9775e-06   0.000187646  
0.254596     4.91442e-05  7.17722e-06  0.000193028  
0.256994     5.10163e-05  7.38069e-06  0.000198512  
0.259392     5.29412e-05  7.58793e-06  0.000204097  
0.26179      5.49199e-05  7.79898e-06  0.000209786  
0.264188     5.69534e-05  8.01387e-06  0.000215579  
0.266586     5.90426e-05  8.23262e-06  0.000221477  
0.268984     6.11887e-05  8.45529e-06  0.000227481  
0.271382     6.33924e-05  8.68189e-06  0.000233591  
0.27378      6.5655e-05   8.91247e-06  0.000239809  
0.276178     6.79774e-05  9.14704e-06  0.000246136  
0.278576     7.03607e-05  9.38566e-06  0.000252573  
0.280974     7.28058e-05  9.62834e-06  0.000259119  
0.283372     7.53139e-05  9.87512e-06  0.000265777  
0.28577      7.7886e-05   1.0126e-05   0.000272548  
0.288168     8.05231e-05  1.03811e-05  0.000279431  
0.290566     8.32264e-05  1.06404e-05  0.000286429  
0.292964     8.5997e-05   1.09039e-05  0.000293541  
0.295362     8.88358e-05  1.11717e-05  0.000300769  
0.29776      9.17441e-05  1.14437e-05  0.000308114  
0.300158     9.47229e-05  1.17201e-05  0.000315577  
0.302556     9.77734e-05  1.20009e-05  0.000323158  
0.304954     0.000100897  1.2286e-05   0.000330859  
0.307352     0.000104094  1.25756e-05  0.000338679  
0.30975      0.000107366  1.28696e-05  0.000346621  
0.312148     0.000110714  1.31681e-05  0.000354686  
0.314546     0.00011414   1.34711e-05  0.000362873  
0.316944     0.000117644  1.37787e-05  0.000371184  
0.319342     0.000121228  1.40908e-05  0.000379619  
0.32174      0.000124893  1.44076e-05  0.00038818   
0.324138     0.00012864   1.4729e-05   0.000396868  
0.326536     0.00013247   1.5055e-05   0.000405683  
0.328934     0.000136385  1.53858e-05  0.000414627  
0.331332     0.000140385  1.57213e-05  0.0004237    
0.33373      0.000144472  1.60616e-05  0.000432902  
0.336128     0.000148648  1.64067e-05  0.000442236  
0.338526     0.000152913  1.67566e-05  0.000451701  
0.340924     0.000157268  1.71113e-05  0.000461299  
0.343322     0.000161715  1.7471e-05   0.000471031  
0.34572      0.000166256  1.78355e-05  0.000480896  
0.348118     0.00017089   1.82051e-05  0.000490898  
0.350516     0.000175621  1.85796e-05  0.000501035  
0.352914     0.000180448  1.89591e-05  0.000511309  
0.355312     0.000185374  1.93436e-05  0.000521721  
0.35771      0.000190399  1.97332e-05  0.000532272  
0.360108     0.000195525  2.0128e-05   0.000542963  
0.362506     0.000200753  2.05278e-05  0.000553793  
0.364904     0.000206085  2.09328e-05  0.000564766  
0.367302     0.000211522  2.13431e-05  0.00057588   
0.3697       0.000217065  2.17585e-05  0.000587137  
0.372098     0.000222715  2.21792e-05  0.000598539  
0.374496     0.000228474  2.26051e-05  0.000610085  
0.376894     0.000234344  2.30364e-05  0.000621776  
0.379292     0.000240325  2.3473e-05   0.000633614  
0.38169      0.000246419  2.3915e-05   0.000645599  
0.384088     0.000252627  2.43624e-05  0.000657733  
0.386486     0.000258951  2.48152e-05  0.000670015  
0.388884     0.000265393  2.52734e-05  0.000682447  
0.391282     0.000271953  2.57372e-05  0.00069503   
0.39368      0.000278633  2.62064e-05  0.000707764  
0.396078     0.000285434  2.66812e-05  0.000720651  
0.398476     0.000292358  2.71616e-05  0.00073369   
0.400874     0.000299406  2.76476e-05  0.000746884  
0.403272     0.000306581  2.81392e-05  0.000760233  
0.40567      0.000313882  2.86364e-05  0.000773737  
0.408068     0.000321312  2.91393e-05  0.000787398  
0.410466     0.000328872  2.9648e-05   0.000801216  
0.412864     0.000336563  3.01624e-05  0.000815192  
0.415262     0.000344388  3.06826e-05  0.000829327  
0.41766      0.000352347  3.12085e-05  0.000843622  
0.420058     0.000360442  3.17403e-05  0.000858078  
0.422456     0.000368675  3.2278e-05   0.000872695  
0.424854     0.000377047  3.28215e-05  0.000887474  
0.427252     0.000385559  3.33709e-05  0.000902416  
0.42965      0.000394214  3.39263e-05  0.000917523  
0.432048     0.000403012  3.44876e-05  0.000932794  
0.434446     0.000411955  3.50549e-05  0.00094823   
0.436844     0.000421045  3.56283e-05  0.000963833  
0.439242     0.000430283  3.62077e-05  0.000979603  
0.44164      0.000439671  3.67931e-05  0.000995541  
0.444038     0.00044921   3.73847e-05  0.00101165   
0.446436     0.000458902  3.79824e-05  0.00102792   
0.448834     0.000468749  3.85862e-05  0.00104437   
0.451232     0.000478751  3.91962e-05  0.00106099   
0.45363      0.000488912  3.98124e-05  0.00107778   
0.456028     0.000499232  4.04349e-05  0.00109474   
0.458426     0.000509712  4.10636e-05  0.00111188   
0.460824     0.000520356  4.16986e-05  0.00112919   
0.463222     0.000531163  4.23399e-05  0.00114667   
0.46562      0.000542136  4.29876e-05  0.00116433   
0.468018     0.000553277  4.36416e-05  0.00118217   
0.470416     0.000564586  4.4302e-05   0.00120018   
0.472814     0.000576066  4.49688e-05  0.00121838   
0.475212     0.000587719  4.5642e-05   0.00123675   
0.47761      0.000599545  4.63218e-05  0.0012553    
0.480008     0.000611548  4.7008e-05   0.00127404   
0.482406     0.000623727  4.77007e-05  0.00129295   
0.484804     0.000636086  4.83999e-05  0.00131205   
0.487202     0.000648625  4.91058e-05  0.00133133   
0.4896       0.000661347  4.98182e-05  0.00135079   
0.491998     0.000674252  5.05372e-05  0.00137044   
0.494396     0.000687344  5.12629e-05  0.00139027   
0.496794     0.000700623  5.19953e-05  0.00141029   
0.499192     0.000714091  5.27343e-05  0.00143049   
0.50159      0.00072775   5.348e-05    0.00145089   
0.503988     0.000741602  5.42325e-05  0.00147147   
0.506386     0.000755648  5.49918e-05  0.00149224   
0.508784     0.000769891  5.57578e-05  0.0015132    
0.511182     0.000784331  5.65307e-05  0.00153435   
0.51358      0.000798971  5.73104e-05  0.00155569   
0.515978     0.000813812  5.80969e-05  0.00157722   
0.518376     0.000828857  5.88903e-05  0.00159895   
0.520774     0.000844107  5.96907e-05  0.00162087   
0.523172     0.000859563  6.04979e-05  0.00164298   
0.52557      0.000875228  6.13121e-05  0.00166529   
0.527968     0.000891103  6.21333e-05  0.0016878    
0.530366     0.00090719   6.29615e-05  0.0017105    
0.532764     0.000923491  6.37967e-05  0.0017334    
0.535162     0.000940008  6.4639e-05   0.00175649   
0.53756      0.000956742  6.54883e-05  0.00177979   
0.539958     0.000973696  6.63447e-05  0.00180328   
0.542356     0.000990871  6.72082e-05  0.00182698   
0.544754     0.00100827   6.80789e-05  0.00185087   
0.547152     0.00102589   6.89567e-05  0.00187497   
0.54955      0.00104374   6.98417e-05  0.00189927   
0.551948     0.00106182   7.07339e-05  0.00192377   
0.554346     0.00108013   7.16333e-05  0.00194847   
0.556744     0.00109867   7.254e-05    0.00197338   
0.559142     0.00111744   7.34539e-05  0.0019985    
0.56154      0.00113645   7.43751e-05  0.00202382   
0.563938     0.0011557    7.53037e-05  0.00204934   
0.566336     0.00117519   7.62395e-05  0.00207508   
0.568734     0.00119492   7.71827e-05  0.00210102   
0.571132     0.0012149    7.81333e-05  0.00212717   
0.57353      0.00123511   7.90913e-05  0.00215353   
0.575928     0.00125558   8.00567e-05  0.0021801    
0.578326     0.0012763    8.10295e-05  0.00220688   
0.580724     0.00129726   8.20098e-05  0.00223387   
0.583122     0.00131848   8.29976e-05  0.00226108   
0.58552      0.00133996   8.39928e-05  0.00228849   
0.587918     0.00136169   8.49956e-05  0.00231612   
0.590316     0.00138368   8.60059e-05  0.00234397   
0.592714     0.00140593   8.70238e-05  0.00237203   
0.595112     0.00142845   8.80493e-05  0.0024003    
0.59751      0.00145123   8.90823e-05  0.00242879   
0.599908     0.00147427   9.0123e-05   0.0024575    
0.602306     0.00149759   9.11713e-05  0.00248642   
0.604704     0.00152117   9.22272e-05  0.00251557   
0.607102     0.00154503   9.32909e-05  0.00254493   
0.6095       0.00156916   9.43622e-05  0.00257451   
0.611898     0.00159357   9.54412e-05  0.00260431   
0.614296     0.00161826   9.6528e-05   0.00263433   
0.616694     0.00164323   9.76225e-05  0.00266457   
0.619092     0.00166848   9.87248e-05  0.00269504   
0.62149      0.00169401   9.98349e-05  0.00272573   
0.623888     0.00171983   0.000100953  0.00275664   
0.626286     0.00174594   0.000102078  0.00278777   
0.628684     0.00177234   0.000103212  0.00281913   
0.631082     0.00179904   0.000104353  0.00285072   
0.63348      0.00182603   0.000105503  0.00288253   
0.635878     0.00185331   0.00010666   0.00291457   
0.638276     0.00188089   0.000107825  0.00294683   
0.640674     0.00190878   0.000108998  0.00297932   
0.643072     0.00193696   0.000110179  0.00301205   
0.64547      0.00196545   0.000111368  0.003045     
0.647868     0.00199425   0.000112565  0.00307817   
0.650266     0.00202336   0.00011377   0.00311158   
0.652664     0.00205278   0.000114983  0.00314523   
0.655062     0.00208251   0.000116204  0.0031791    
0.65746      0.00211255   0.000117433  0.0032132    
0.659858     0.00214291   0.00011867   0.00324754   
0.662256     0.0021736    0.000119915  0.00328211   
0.664654     0.0022046    0.000121168  0.00331691   
0.667052     0.00223593   0.000122429  0.00335195   
0.66945      0.00226758   0.000123699  0.00338723   
0.671848     0.00229956   0.000124976  0.00342274   
0.674246     0.00233187   0.000126262  0.00345848   
0.676644     0.00236451   0.000127556  0.00349447   
0.679042     0.00239749   0.000128858  0.00353069   
0.68144      0.0024308    0.000130169  0.00356715   
0.683838     0.00246445   0.000131487  0.00360384   
0.686236     0.00249843   0.000132814  0.00364078   
0.688634     0.00253277   0.000134149  0.00367796   
0.691032     0.00256744   0.000135492  0.00371537   
0.69343      0.00260247   0.000136844  0.00375303   
0.695828     0.00263784   0.000138204  0.00379093   
0.698226     0.00267356   0.000139572  0.00382907   
0.700624     0.00270963   0.000140949  0.00386746   
0.703022     0.00274606   0.000142334  0.00390609   
0.70542      0.00278285   0.000143727  0.00394496   
0.707818     0.00282      0.000145128  0.00398407   
0.710216     0.00285751   0.000146538  0.00402343   
0.712614     0.00289538   0.000147957  0.00406304   
0.715012     0.00293362   0.000149383  0.00410289   
0.71741      0.00297222   0.000150818  0.00414299   
0.719808     0.0030112    0.000152262  0.00418334   
0.722206     0.00305055   0.000153714  0.00422393   
0.724604     0.00309027   0.000155175  0.00426478   
0.727002     0.00313037   0.000156643  0.00430587   
0.7294       0.00317085   0.000158121  0.00434721   
0.731798     0.00321171   0.000159607  0.0043888    
0.734196     0.00325296   0.000161101  0.00443064   
0.736594     0.00329458   0.000162604  0.00447273   
0.738992     0.0033366    0.000164116  0.00451507   
0.74139      0.00337901   0.000165636  0.00455766   
0.743788     0.00342181   0.000167164  0.00460051   
0.746186     0.003465     0.000168701  0.00464361   
0.748584     0.00350859   0.000170247  0.00468697   
0.750982     0.00355257   0.000171801  0.00473057   
0.75338      0.00359696   0.000173364  0.00477443   
0.755778     0.00364175   0.000174935  0.00481855   
0.758176     0.00368695   0.000176515  0.00486292   
0.760574     0.00373256   0.000178104  0.00490755   
0.762972     0.00377857   0.000179701  0.00495244   
0.76537      0.003825     0.000181307  0.00499758   
0.767768     0.00387184   0.000182922  0.00504298   
0.770166     0.00391909   0.000184545  0.00508863   
0.772564     0.00396677   0.000186177  0.00513455   
0.774962     0.00401486   0.000187818  0.00518072   
0.77736      0.00406338   0.000189467  0.00522716   
0.779758     0.00411233   0.000191125  0.00527385   
0.782156     0.0041617    0.000192792  0.00532081   
0.784554     0.0042115    0.000194467  0.00536802   
0.786952     0.00426174   0.000196151  0.0054155    
0.78935      0.0043124    0.000197844  0.00546324   
0.791748     0.00436351   0.000199546  0.00551124   
0.794146     0.00441505   0.000201256  0.0055595    
0.796544     0.00446704   0.000202976  0.00560802   
0.798942     0.00451947   0.000204704  0.00565681   
0.80134      0.00457234   0.00020644   0.00570587   
0.803738     0.00462566   0.000208186  0.00575518   
0.806136     0.00467943   0.00020994   0.00580477   
0.808534     0.00473366   0.000211703  0.00585462   
0.810932     0.00478833   0.000213475  0.00590473   
0.81333      0.00484347   0.000215256  0.00595511   
0.815728     0.00489906   0.000217045  0.00600576   
0.818126     0.00495512   0.000218844  0.00605667   
0.820524     0.00501164   0.000220651  0.00610785   
0.822922     0.00506862   0.000222467  0.0061593    
0.82532      0.00512608   0.000224292  0.00621102   
0.827718     0.005184     0.000226126  0.00626301   
0.830116     0.0052424    0.000227968  0.00631526   
0.832514     0.00530127   0.00022982   0.00636779   
0.834912     0.00536062   0.00023168   0.00642058   
0.83731      0.00542045   0.00023355   0.00647365   
0.839708     0.00548076   0.000235428  0.00652698   
0.842106     0.00554156   0.000237315  0.00658059   
0.844504     0.00560284   0.000239211  0.00663447   
0.846902     0.00566461   0.000241115  0.00668862   
0.8493       0.00572687   0.000243029  0.00674305   
0.851698     0.00578962   0.000244952  0.00679774   
0.854096     0.00585288   0.000246883  0.00685271   
0.856494     0.00591662   0.000248824  0.00690796   
0.858892     0.00598087   0.000250773  0.00696347   
0.86129      0.00604562   0.000252731  0.00701927   
0.863688     0.00611088   0.000254699  0.00707533   
0.866086     0.00617664   0.000256675  0.00713167   
0.868484     0.00624292   0.00025866   0.00718829   
0.870882     0.0063097    0.000260654  0.00724518   
0.87328      0.006377     0.000262657  0.00730235   
0.875678     0.00644481   0.000264669  0.0073598    
0.878076     0.00651315   0.00026669   0.00741752   
0.880474     0.006582     0.000268719  0.00747552   
0.882872     0.00665138   0.000270758  0.0075338    
0.88527      0.00672128   0.000272806  0.00759235   
0.887668     0.00679171   0.000274863  0.00765118   
0.890066     0.00686267   0.000276928  0.0077103    
0.892464     0.00693417   0.000279003  0.00776969   
0.894862     0.00700619   0.000281086  0.00782936   
0.89726      0.00707876   0.000283179  0.00788931   
