# Mass = 0.0480256 Mev*(hbarc)^2/2 
# R = 7.46549 fm 
# a = 0.662 fm 
# V0 = 45.1828 MeV 
# RSO = 6.87299 fm 
# aSO = 0.662 fm 
# VSO = 27.9403 MeV fm^2
# Rc = 7.46549 fm
# Zc = 0
# n = 1 
# l = 3 
# two_j = 5 
# two_t = -1 
# Energy = -8.41984 MeV
# r          u            Phi          u/r          
0.01         1.28353e-10  9.49364e-10  1.28353e-08  
0.012398     3.03257e-10  1.80919e-09  2.44601e-08  
0.014796     6.15147e-10  3.07509e-09  4.15752e-08  
0.017194     1.12178e-09  4.82559e-09  6.52423e-08  
0.019592     1.89108e-09  7.13921e-09  9.6523e-08   
0.02199      3.00118e-09  1.00945e-08  1.36479e-07  
0.024388     4.54036e-09  1.37698e-08  1.86172e-07  
0.026786     6.60712e-09  1.82438e-08  2.46663e-07  
0.029184     9.31009e-09  2.35949e-08  3.19014e-07  
0.031582     1.27681e-08  2.99015e-08  4.04285e-07  
0.03398      1.71102e-08  3.72422e-08  5.03538e-07  
0.036378     2.24755e-08  4.56952e-08  6.17833e-07  
0.038776     2.90134e-08  5.5339e-08   7.48232e-07  
0.041174     3.68834e-08  6.62521e-08  8.95794e-07  
0.043572     4.62552e-08  7.85127e-08  1.06158e-06  
0.04597      5.73085e-08  9.21992e-08  1.24665e-06  
0.048368     7.02335e-08  1.0739e-07   1.45206e-06  
0.050766     8.52301e-08  1.24163e-07  1.67888e-06  
0.053164     1.02509e-07  1.42597e-07  1.92816e-06  
0.055562     1.2229e-07   1.6277e-07   2.20097e-06  
0.05796      1.44804e-07  1.8476e-07   2.49835e-06  
0.060358     1.70292e-07  2.08646e-07  2.82137e-06  
0.062756     1.99005e-07  2.34505e-07  3.1711e-06   
0.065154     2.31204e-07  2.62416e-07  3.54857e-06  
0.067552     2.67159e-07  2.92457e-07  3.95486e-06  
0.06995      3.07152e-07  3.24705e-07  4.39103e-06  
0.072348     3.51475e-07  3.59239e-07  4.85812e-06  
0.074746     4.00429e-07  3.96137e-07  5.35719e-06  
0.077144     4.54325e-07  4.35477e-07  5.88931e-06  
0.079542     5.13485e-07  4.77336e-07  6.45552e-06  
0.08194      5.78242e-07  5.21792e-07  7.05689e-06  
0.084338     6.48936e-07  5.68924e-07  7.69446e-06  
0.086736     7.2592e-07   6.18809e-07  8.3693e-06   
0.089134     8.09556e-07  6.71524e-07  9.08245e-06  
0.091532     9.00215e-07  7.27147e-07  9.83498e-06  
0.09393      9.98281e-07  7.85757e-07  1.06279e-05  
0.096328     1.10415e-06  8.4743e-07   1.14624e-05  
0.098726     1.21821e-06  9.12243e-07  1.23393e-05  
0.101124     1.34089e-06  9.80276e-07  1.32599e-05  
0.103522     1.4726e-06   1.0516e-06   1.4225e-05   
0.10592      1.61378e-06  1.12631e-06  1.52359e-05  
0.108318     1.76488e-06  1.20446e-06  1.62935e-05  
0.110716     1.92633e-06  1.28614e-06  1.73989e-05  
0.113114     2.09861e-06  1.37142e-06  1.85531e-05  
0.115512     2.28219e-06  1.46039e-06  1.97572e-05  
0.11791      2.47755e-06  1.55311e-06  2.10122e-05  
0.120308     2.68518e-06  1.64967e-06  2.23192e-05  
0.122706     2.90558e-06  1.75015e-06  2.36792e-05  
0.125104     3.13928e-06  1.85461e-06  2.50933e-05  
0.127502     3.38678e-06  1.96314e-06  2.65626e-05  
0.1299       3.64863e-06  2.07581e-06  2.8088e-05   
0.132298     3.92536e-06  2.19271e-06  2.96706e-05  
0.134696     4.21753e-06  2.3139e-06   3.13114e-05  
0.137094     4.52569e-06  2.43946e-06  3.30116e-05  
0.139492     4.85043e-06  2.56947e-06  3.47721e-05  
0.14189      5.19232e-06  2.70401e-06  3.6594e-05   
0.144288     5.55195e-06  2.84315e-06  3.84783e-05  
0.146686     5.92993e-06  2.98696e-06  4.0426e-05   
0.149084     6.32687e-06  3.13554e-06  4.24383e-05  
0.151482     6.74339e-06  3.28894e-06  4.45161e-05  
0.15388      7.18012e-06  3.44725e-06  4.66605e-05  
0.156278     7.6377e-06   3.61054e-06  4.88726e-05  
0.158676     8.11679e-06  3.77889e-06  5.11532e-05  
0.161074     8.61804e-06  3.95237e-06  5.35036e-05  
0.163472     9.14212e-06  4.13106e-06  5.59247e-05  
0.16587      9.68972e-06  4.31504e-06  5.84176e-05  
0.168268     1.02615e-05  4.50437e-06  6.09832e-05  
0.170666     1.08582e-05  4.69914e-06  6.36227e-05  
0.173064     1.14806e-05  4.89943e-06  6.63371e-05  
0.175462     1.21292e-05  5.10529e-06  6.91273e-05  
0.17786      1.28049e-05  5.31682e-06  7.19945e-05  
0.180258     1.35085e-05  5.53409e-06  7.49396e-05  
0.182656     1.42405e-05  5.75716e-06  7.79637e-05  
0.185054     1.50019e-05  5.98612e-06  8.10678e-05  
0.187452     1.57934e-05  6.22105e-06  8.4253e-05   
0.18985      1.66157e-05  6.462e-06    8.75202e-05  
0.192248     1.74697e-05  6.70907e-06  9.08705e-05  
0.194646     1.83561e-05  6.96232e-06  9.43049e-05  
0.197044     1.92757e-05  7.22182e-06  9.78245e-05  
0.199442     2.02294e-05  7.48766e-06  0.00010143   
0.20184      2.1218e-05   7.75991e-06  0.000105123  
0.204238     2.22424e-05  8.03863e-06  0.000108904  
0.206636     2.33033e-05  8.32391e-06  0.000112774  
0.209034     2.44016e-05  8.61582e-06  0.000116735  
0.211432     2.55382e-05  8.91443e-06  0.000120787  
0.21383      2.6714e-05   9.21981e-06  0.000124931  
0.216228     2.79298e-05  9.53204e-06  0.000129168  
0.218626     2.91866e-05  9.85119e-06  0.0001335    
0.221024     3.04852e-05  1.01773e-05  0.000137927  
0.223422     3.18265e-05  1.05106e-05  0.00014245   
0.22582      3.32115e-05  1.08509e-05  0.000147071  
0.228218     3.46412e-05  1.11985e-05  0.00015179   
0.230616     3.61164e-05  1.15533e-05  0.000156608  
0.233014     3.7638e-05   1.19155e-05  0.000161527  
0.235412     3.92071e-05  1.22852e-05  0.000166547  
0.23781      4.08247e-05  1.26623e-05  0.000171669  
0.240208     4.24916e-05  1.3047e-05   0.000176895  
0.242606     4.4209e-05   1.34394e-05  0.000182225  
0.245004     4.59777e-05  1.38395e-05  0.000187661  
0.247402     4.77988e-05  1.42474e-05  0.000193203  
0.2498       4.96733e-05  1.46631e-05  0.000198852  
0.252198     5.16022e-05  1.50868e-05  0.00020461   
0.254596     5.35866e-05  1.55185e-05  0.000210477  
0.256994     5.56275e-05  1.59582e-05  0.000216455  
0.259392     5.7726e-05   1.64061e-05  0.000222543  
0.26179      5.98831e-05  1.68622e-05  0.000228745  
0.264188     6.20998e-05  1.73266e-05  0.000235059  
0.266586     6.43774e-05  1.77994e-05  0.000241488  
0.268984     6.67167e-05  1.82806e-05  0.000248032  
0.271382     6.91191e-05  1.87703e-05  0.000254693  
0.27378      7.15855e-05  1.92686e-05  0.000261471  
0.276178     7.41171e-05  1.97755e-05  0.000268367  
0.278576     7.67149e-05  2.02911e-05  0.000275382  
0.280974     7.93802e-05  2.08155e-05  0.000282518  
0.283372     8.21141e-05  2.13488e-05  0.000289775  
0.28577      8.49178e-05  2.18909e-05  0.000297154  
0.288168     8.77923e-05  2.24421e-05  0.000304657  
0.290566     9.07389e-05  2.30023e-05  0.000312283  
0.292964     9.37587e-05  2.35717e-05  0.000320035  
0.295362     9.68529e-05  2.41502e-05  0.000327913  
0.29776      0.000100023  2.4738e-05   0.000335918  
0.300158     0.00010327   2.53352e-05  0.000344051  
0.302556     0.000106594  2.59417e-05  0.000352313  
0.304954     0.000109998  2.65577e-05  0.000360705  
0.307352     0.000113483  2.71833e-05  0.000369228  
0.30975      0.000117049  2.78185e-05  0.000377883  
0.312148     0.000120698  2.84633e-05  0.00038667   
0.314546     0.000124432  2.91179e-05  0.000395592  
0.316944     0.000128251  2.97823e-05  0.000404649  
0.319342     0.000132157  3.04565e-05  0.000413841  
0.32174      0.000136151  3.11407e-05  0.00042317   
0.324138     0.000140234  3.18349e-05  0.000432637  
0.326536     0.000144408  3.25392e-05  0.000442243  
0.328934     0.000148674  3.32537e-05  0.000451988  
0.331332     0.000153033  3.39783e-05  0.000461873  
0.33373      0.000157487  3.47132e-05  0.0004719    
0.336128     0.000162037  3.54585e-05  0.00048207   
0.338526     0.000166685  3.62142e-05  0.000492383  
0.340924     0.00017143   3.69803e-05  0.000502841  
0.343322     0.000176276  3.7757e-05   0.000513443  
0.34572      0.000181224  3.85443e-05  0.000524192  
0.348118     0.000186274  3.93423e-05  0.000535088  
0.350516     0.000191428  4.0151e-05   0.000546133  
0.352914     0.000196688  4.09704e-05  0.000557326  
0.355312     0.000202055  4.18008e-05  0.000568669  
0.35771      0.00020753   4.26421e-05  0.000580163  
0.360108     0.000213115  4.34944e-05  0.00059181   
0.362506     0.000218812  4.43577e-05  0.000603608  
0.364904     0.000224621  4.52322e-05  0.000615561  
0.367302     0.000230544  4.61178e-05  0.000627668  
0.3697       0.000236583  4.70147e-05  0.000639931  
0.372098     0.000242738  4.79229e-05  0.00065235   
0.374496     0.000249013  4.88424e-05  0.000664927  
0.376894     0.000255407  4.97735e-05  0.000677662  
0.379292     0.000261923  5.0716e-05   0.000690556  
0.38169      0.000268561  5.167e-05    0.000703611  
0.384088     0.000275324  5.26357e-05  0.000716827  
0.386486     0.000282214  5.36131e-05  0.000730204  
0.388884     0.00028923   5.46022e-05  0.000743745  
0.391282     0.000296376  5.56032e-05  0.000757449  
0.39368      0.000303652  5.6616e-05   0.000771318  
0.396078     0.000311061  5.76407e-05  0.000785352  
0.398476     0.000318603  5.86774e-05  0.000799554  
0.400874     0.00032628   5.97262e-05  0.000813922  
0.403272     0.000334094  6.07871e-05  0.000828459  
0.40567      0.000342047  6.18602e-05  0.000843165  
0.408068     0.000350139  6.29455e-05  0.000858042  
0.410466     0.000358373  6.40431e-05  0.000873089  
0.412864     0.00036675   6.51531e-05  0.000888308  
0.415262     0.000375272  6.62755e-05  0.0009037    
0.41766      0.00038394   6.74103e-05  0.000919266  
0.420058     0.000392757  6.85577e-05  0.000935006  
0.422456     0.000401723  6.97177e-05  0.000950922  
0.424854     0.00041084   7.08903e-05  0.000967014  
0.427252     0.00042011   7.20757e-05  0.000983283  
0.42965      0.000429534  7.32738e-05  0.00099973   
0.432048     0.000439115  7.44847e-05  0.00101636   
0.434446     0.000448853  7.57085e-05  0.00103316   
0.436844     0.000458752  7.69453e-05  0.00105015   
0.439242     0.000468811  7.81951e-05  0.00106732   
0.44164      0.000479033  7.94579e-05  0.00108467   
0.444038     0.00048942   8.07338e-05  0.0011022    
0.446436     0.000499973  8.20229e-05  0.00111992   
0.448834     0.000510695  8.33252e-05  0.00113783   
0.451232     0.000521586  8.46408e-05  0.00115591   
0.45363      0.000532648  8.59698e-05  0.00117419   
0.456028     0.000543884  8.73121e-05  0.00119265   
0.458426     0.000555294  8.86679e-05  0.00121131   
0.460824     0.000566882  9.00372e-05  0.00123015   
0.463222     0.000578647  9.14201e-05  0.00124918   
0.46562      0.000590593  9.28165e-05  0.0012684    
0.468018     0.000602721  9.42267e-05  0.00128782   
0.470416     0.000615033  9.56505e-05  0.00130742   
0.472814     0.00062753   9.70882e-05  0.00132722   
0.475212     0.000640215  9.85396e-05  0.00134722   
0.47761      0.000653089  0.000100005  0.00136741   
0.480008     0.000666154  0.000101484  0.0013878    
0.482406     0.000679411  0.000102978  0.00140838   
0.484804     0.000692863  0.000104485  0.00142916   
0.487202     0.000706511  0.000106006  0.00145014   
0.4896       0.000720358  0.000107542  0.00147132   
0.491998     0.000734405  0.000109092  0.0014927    
0.494396     0.000748653  0.000110656  0.00151428   
0.496794     0.000763105  0.000112234  0.00153606   
0.499192     0.000777763  0.000113827  0.00155804   
0.50159      0.000792629  0.000115434  0.00158023   
0.503988     0.000807704  0.000117056  0.00160262   
0.506386     0.00082299   0.000118692  0.00162522   
0.508784     0.000838489  0.000120342  0.00164802   
0.511182     0.000854203  0.000122008  0.00167103   
0.51358      0.000870134  0.000123687  0.00169425   
0.515978     0.000886284  0.000125382  0.00171768   
0.518376     0.000902654  0.000127091  0.00174131   
0.520774     0.000919247  0.000128816  0.00176516   
0.523172     0.000936065  0.000130555  0.00178921   
0.52557      0.000953109  0.000132309  0.00181348   
0.527968     0.000970382  0.000134078  0.00183796   
0.530366     0.000987885  0.000135862  0.00186265   
0.532764     0.00100562   0.00013766   0.00188755   
0.535162     0.00102359   0.000139475  0.00191267   
0.53756      0.0010418    0.000141304  0.00193801   
0.539958     0.00106024   0.000143148  0.00196356   
0.542356     0.00107892   0.000145008  0.00198933   
0.544754     0.00109785   0.000146883  0.00201531   
0.547152     0.00111702   0.000148773  0.00204152   
0.54955      0.00113644   0.000150679  0.00206794   
0.551948     0.0011561    0.0001526    0.00209459   
0.554346     0.00117602   0.000154536  0.00212145   
0.556744     0.00119618   0.000156488  0.00214854   
0.559142     0.00121661   0.000158456  0.00217584   
0.56154      0.00123728   0.000160439  0.00220338   
0.563938     0.00125822   0.000162438  0.00223113   
0.566336     0.00127942   0.000164453  0.00225911   
0.568734     0.00130087   0.000166483  0.00228731   
0.571132     0.0013226    0.000168529  0.00231574   
0.57353      0.00134458   0.000170591  0.0023444    
0.575928     0.00136684   0.000172669  0.00237329   
0.578326     0.00138937   0.000174763  0.0024024    
0.580724     0.00141217   0.000176872  0.00243174   
0.583122     0.00143524   0.000178998  0.00246131   
0.58552      0.0014586    0.000181139  0.00249111   
0.587918     0.00148223   0.000183297  0.00252115   
0.590316     0.00150614   0.000185471  0.00255141   
0.592714     0.00153033   0.000187661  0.00258191   
0.595112     0.00155481   0.000189867  0.00261264   
0.59751      0.00157958   0.00019209   0.0026436    
0.599908     0.00160463   0.000194329  0.0026748    
0.602306     0.00162998   0.000196584  0.00270623   
0.604704     0.00165562   0.000198855  0.0027379    
0.607102     0.00168156   0.000201143  0.00276981   
0.6095       0.00170779   0.000203447  0.00280195   
0.611898     0.00173433   0.000205768  0.00283434   
0.614296     0.00176116   0.000208105  0.00286696   
0.616694     0.0017883    0.000210459  0.00289982   
0.619092     0.00181575   0.000212829  0.00293292   
0.62149      0.0018435    0.000215216  0.00296626   
0.623888     0.00187157   0.00021762   0.00299985   
0.626286     0.00189995   0.000220041  0.00303367   
0.628684     0.00192864   0.000222478  0.00306774   
0.631082     0.00195765   0.000224932  0.00310205   
0.63348      0.00198698   0.000227402  0.00313661   
0.635878     0.00201663   0.00022989   0.00317141   
0.638276     0.00204661   0.000232394  0.00320646   
0.640674     0.00207691   0.000234916  0.00324175   
0.643072     0.00210754   0.000237454  0.00327729   
0.64547      0.0021385    0.00024001   0.00331308   
0.647868     0.00216979   0.000242582  0.00334912   
0.650266     0.00220141   0.000245171  0.0033854    
0.652664     0.00223338   0.000247778  0.00342194   
0.655062     0.00226568   0.000250401  0.00345872   
0.65746      0.00229832   0.000253042  0.00349576   
0.659858     0.00233131   0.0002557    0.00353305   
0.662256     0.00236464   0.000258375  0.00357059   
0.664654     0.00239832   0.000261068  0.00360838   
0.667052     0.00243236   0.000263778  0.00364643   
0.66945      0.00246674   0.000266505  0.00368473   
0.671848     0.00250148   0.000269249  0.00372328   
0.674246     0.00253657   0.000272011  0.00376209   
0.676644     0.00257203   0.00027479   0.00380116   
0.679042     0.00260785   0.000277587  0.00384048   
0.68144      0.00264403   0.000280401  0.00388006   
0.683838     0.00268057   0.000283232  0.00391989   
0.686236     0.00271749   0.000286081  0.00395999   
0.688634     0.00275477   0.000288948  0.00400034   
0.691032     0.00279243   0.000291832  0.00404096   
0.69343      0.00283047   0.000294734  0.00408183   
0.695828     0.00286888   0.000297654  0.00412297   
0.698226     0.00290767   0.000300591  0.00416436   
0.700624     0.00294684   0.000303546  0.00420602   
0.703022     0.0029864    0.000306518  0.00424794   
0.70542      0.00302634   0.000309509  0.00429013   
0.707818     0.00306667   0.000312517  0.00433257   
0.710216     0.0031074    0.000315543  0.00437529   
0.712614     0.00314852   0.000318586  0.00441826   
0.715012     0.00319003   0.000321648  0.0044615    
0.71741      0.00323194   0.000324728  0.00450501   
0.719808     0.00327425   0.000327825  0.00454879   
0.722206     0.00331697   0.00033094   0.00459283   
0.724604     0.00336009   0.000334074  0.00463714   
0.727002     0.00340362   0.000337225  0.00468171   
0.7294       0.00344755   0.000340394  0.00472656   
0.731798     0.0034919    0.000343581  0.00477168   
0.734196     0.00353667   0.000346787  0.00481706   
0.736594     0.00358185   0.00035001   0.00486272   
0.738992     0.00362745   0.000353252  0.00490864   
0.74139      0.00367347   0.000356511  0.00495484   
0.743788     0.00371992   0.000359789  0.00500131   
0.746186     0.00376679   0.000363085  0.00504805   
0.748584     0.00381409   0.000366399  0.00509507   
0.750982     0.00386182   0.000369731  0.00514236   
0.75338      0.00390998   0.000373082  0.00518992   
0.755778     0.00395858   0.00037645   0.00523776   
0.758176     0.00400762   0.000379837  0.00528587   
0.760574     0.0040571    0.000383243  0.00533426   
0.762972     0.00410702   0.000386666  0.00538293   
0.76537      0.00415739   0.000390108  0.00543187   
0.767768     0.0042082    0.000393568  0.00548109   
0.770166     0.00425947   0.000397047  0.00553059   
0.772564     0.00431119   0.000400544  0.00558036   
0.774962     0.00436336   0.000404059  0.00563041   
0.77736      0.00441599   0.000407592  0.00568075   
0.779758     0.00446907   0.000411145  0.00573136   
0.782156     0.00452262   0.000414715  0.00578225   
0.784554     0.00457664   0.000418304  0.00583342   
0.786952     0.00463112   0.000421912  0.00588488   
0.78935      0.00468607   0.000425537  0.00593661   
0.791748     0.00474149   0.000429182  0.00598863   
0.794146     0.00479738   0.000432845  0.00604093   
0.796544     0.00485375   0.000436526  0.00609352   
0.798942     0.0049106    0.000440226  0.00614638   
0.80134      0.00496793   0.000443945  0.00619953   
0.803738     0.00502575   0.000447682  0.00625297   
0.806136     0.00508405   0.000451438  0.00630669   
0.808534     0.00514284   0.000455212  0.00636069   
0.810932     0.00520211   0.000459005  0.00641498   
0.81333      0.00526189   0.000462816  0.00646956   
0.815728     0.00532215   0.000466646  0.00652442   
0.818126     0.00538292   0.000470495  0.00657957   
0.820524     0.00544418   0.000474362  0.00663501   
0.822922     0.00550595   0.000478248  0.00669074   
0.82532      0.00556823   0.000482153  0.00674675   
0.827718     0.00563101   0.000486076  0.00680305   
0.830116     0.0056943    0.000490018  0.00685964   
0.832514     0.0057581    0.000493979  0.00691652   
0.834912     0.00582242   0.000497959  0.00697369   
0.83731      0.00588726   0.000501957  0.00703115   
0.839708     0.00595261   0.000505974  0.00708891   
0.842106     0.00601849   0.000510009  0.00714695   
0.844504     0.00608489   0.000514064  0.00720528   
0.846902     0.00615182   0.000518137  0.00726391   
0.8493       0.00621928   0.000522229  0.00732283   
0.851698     0.00628727   0.000526339  0.00738204   
0.854096     0.00635579   0.000530468  0.00744154   
0.856494     0.00642485   0.000534616  0.00750134   
0.858892     0.00649446   0.000538783  0.00756143   
0.86129      0.0065646    0.000542969  0.00762182   
0.863688     0.00663528   0.000547173  0.0076825    
0.866086     0.00670652   0.000551397  0.00774348   
0.868484     0.0067783    0.000555639  0.00780475   
0.870882     0.00685063   0.000559899  0.00786631   
0.87328      0.00692352   0.000564179  0.00792818   
0.875678     0.00699696   0.000568477  0.00799033   
0.878076     0.00707096   0.000572794  0.00805279   
0.880474     0.00714552   0.00057713   0.00811554   
0.882872     0.00722065   0.000581485  0.00817859   
0.88527      0.00729634   0.000585859  0.00824194   
0.887668     0.0073726    0.000590251  0.00830558   
0.890066     0.00744943   0.000594662  0.00836953   
0.892464     0.00752684   0.000599092  0.00843377   
0.894862     0.00760482   0.000603541  0.00849831   
0.89726      0.00768338   0.000608008  0.00856315   
