# Mass = 0.0473265 Mev*(hbarc)^2/2 
# R = 4.82059 fm 
# a = 0.662 fm 
# V0 = 56.2161 MeV 
# RSO = 4.43035 fm 
# aSO = 0.662 fm 
# VSO = 28.6838 MeV fm^2
# n = 0 
# l = 1 
# two_j = 1 
# two_t = 1 
# Energy = -35.2065 MeV
# r          u            Phi          u/r          
0.1          0.00194286   0.000243497  0.0194286    
0.10238      0.00203643   0.000249263  0.0198909    
0.10476      0.0021322    0.000255029  0.0203532    
0.10714      0.00223015   0.000260793  0.0208153    
0.10952      0.0023303    0.000266555  0.0212774    
0.1119       0.00243263   0.000272315  0.0217393    
0.11428      0.00253715   0.000278074  0.0222011    
0.11666      0.00264385   0.000283832  0.0226629    
0.11904      0.00275275   0.000289587  0.0231245    
0.12142      0.00286382   0.000295341  0.0235861    
0.1238       0.00297709   0.000301093  0.0240476    
0.12618      0.00309253   0.000306843  0.0245089    
0.12856      0.00321016   0.000312592  0.0249702    
0.13094      0.00332998   0.000318338  0.0254313    
0.13332      0.00345197   0.000324082  0.0258924    
0.1357       0.00357615   0.000329824  0.0263534    
0.13808      0.00370251   0.000335564  0.0268142    
0.14046      0.00383104   0.000341302  0.027275     
0.14284      0.00396176   0.000347038  0.0277356    
0.14522      0.00409465   0.000352771  0.0281962    
0.1476       0.00422972   0.000358502  0.0286567    
0.14998      0.00436697   0.000364231  0.029117     
0.15236      0.00450639   0.000369957  0.0295773    
0.15474      0.00464799   0.000375681  0.0300374    
0.15712      0.00479176   0.000381403  0.0304975    
0.1595       0.0049377    0.000387122  0.0309574    
0.16188      0.00508582   0.000392839  0.0314172    
0.16426      0.0052361    0.000398553  0.0318769    
0.16664      0.00538856   0.000404264  0.0323365    
0.16902      0.00554318   0.000409973  0.032796     
0.1714       0.00569997   0.000415679  0.0332554    
0.17378      0.00585893   0.000421382  0.0337146    
0.17616      0.00602005   0.000427082  0.0341738    
0.17854      0.00618334   0.00043278   0.0346328    
0.18092      0.00634879   0.000438475  0.0350917    
0.1833       0.00651641   0.000444167  0.0355505    
0.18568      0.00668618   0.000449856  0.0360092    
0.18806      0.00685812   0.000455542  0.0364677    
0.19044      0.00703221   0.000461225  0.0369261    
0.19282      0.00720846   0.000466905  0.0373844    
0.1952       0.00738687   0.000472582  0.0378426    
0.19758      0.00756744   0.000478256  0.0383006    
0.19996      0.00775016   0.000483926  0.0387585    
0.20234      0.00793503   0.000489594  0.0392163    
0.20472      0.00812205   0.000495258  0.0396739    
0.2071       0.00831122   0.000500919  0.0401315    
0.20948      0.00850255   0.000506576  0.0405888    
0.21186      0.00869602   0.00051223   0.0410461    
0.21424      0.00889164   0.000517881  0.0415032    
0.21662      0.0090894    0.000523529  0.0419601    
0.219        0.00928931   0.000529172  0.0424169    
0.22138      0.00949136   0.000534813  0.0428736    
0.22376      0.00969555   0.00054045   0.0433301    
0.22614      0.00990188   0.000546083  0.0437865    
0.22852      0.0101104    0.000551712  0.0442428    
0.2309       0.010321     0.000557338  0.0446989    
0.23328      0.0105337    0.000562961  0.0451548    
0.23566      0.0107486    0.000568579  0.0456106    
0.23804      0.0109656    0.000574194  0.0460662    
0.24042      0.0111847    0.000579805  0.0465217    
0.2428       0.011406     0.000585412  0.046977     
0.24518      0.0116294    0.000591015  0.0474322    
0.24756      0.011855     0.000596614  0.0478872    
0.24994      0.0120826    0.000602209  0.048342     
0.25232      0.0123124    0.0006078    0.0487967    
0.2547       0.0125443    0.000613387  0.0492513    
0.25708      0.0127783    0.00061897   0.0497056    
0.25946      0.0130145    0.000624549  0.0501598    
0.26184      0.0132527    0.000630124  0.0506138    
0.26422      0.0134931    0.000635695  0.0510677    
0.2666       0.0137356    0.000641261  0.0515214    
0.26898      0.0139802    0.000646823  0.0519749    
0.27136      0.0142269    0.000652381  0.0524282    
0.27374      0.0144758    0.000657934  0.0528814    
0.27612      0.0147267    0.000663483  0.0533344    
0.2785       0.0149797    0.000669028  0.0537872    
0.28088      0.0152349    0.000674568  0.0542398    
0.28326      0.0154921    0.000680104  0.0546923    
0.28564      0.0157515    0.000685635  0.0551446    
0.28802      0.0160129    0.000691161  0.0555966    
0.2904       0.0162765    0.000696683  0.0560485    
0.29278      0.0165421    0.000702201  0.0565003    
0.29516      0.0168099    0.000707713  0.0569518    
0.29754      0.0170797    0.000713221  0.0574031    
0.29992      0.0173517    0.000718724  0.0578543    
0.3023       0.0176257    0.000724223  0.0583052    
0.30468      0.0179018    0.000729716  0.058756     
0.30706      0.01818      0.000735205  0.0592065    
0.30944      0.0184602    0.000740688  0.0596569    
0.31182      0.0187426    0.000746167  0.0601071    
0.3142       0.019027     0.000751641  0.060557     
0.31658      0.0193135    0.00075711   0.0610068    
0.31896      0.0196021    0.000762573  0.0614563    
0.32134      0.0198928    0.000768032  0.0619057    
0.32372      0.0201855    0.000773486  0.0623549    
0.3261       0.0204803    0.000778934  0.0628038    
0.32848      0.0207772    0.000784377  0.0632525    
0.33086      0.0210761    0.000789815  0.0637011    
0.33324      0.0213771    0.000795248  0.0641494    
0.33562      0.0216802    0.000800675  0.0645975    
0.338        0.0219853    0.000806097  0.0650453    
0.34038      0.0222925    0.000811513  0.065493     
0.34276      0.0226018    0.000816925  0.0659405    
0.34514      0.022913     0.00082233   0.0663877    
0.34752      0.0232264    0.000827731  0.0668347    
0.3499       0.0235418    0.000833125  0.0672815    
0.35228      0.0238592    0.000838514  0.067728     
0.35466      0.0241787    0.000843898  0.0681744    
0.35704      0.0245003    0.000849276  0.0686205    
0.35942      0.0248238    0.000854648  0.0690664    
0.3618       0.0251494    0.000860014  0.069512     
0.36418      0.0254771    0.000865375  0.0699574    
0.36656      0.0258068    0.00087073   0.0704026    
0.36894      0.0261385    0.000876079  0.0708476    
0.37132      0.0264723    0.000881423  0.0712923    
0.3737       0.026808     0.00088676   0.0717368    
0.37608      0.0271458    0.000892092  0.072181     
0.37846      0.0274857    0.000897417  0.072625     
0.38084      0.0278275    0.000902737  0.0730688    
0.38322      0.0281714    0.00090805   0.0735123    
0.3856       0.0285173    0.000913358  0.0739556    
0.38798      0.0288652    0.000918659  0.0743986    
0.39036      0.0292151    0.000923954  0.0748414    
0.39274      0.029567     0.000929243  0.0752839    
0.39512      0.0299209    0.000934526  0.0757262    
0.3975       0.0302769    0.000939802  0.0761682    
0.39988      0.0306348    0.000945073  0.07661      
0.40226      0.0309947    0.000950337  0.0770515    
0.40464      0.0313567    0.000955594  0.0774928    
0.40702      0.0317206    0.000960845  0.0779338    
0.4094       0.0320865    0.00096609   0.0783745    
0.41178      0.0324545    0.000971329  0.078815     
0.41416      0.0328244    0.00097656   0.0792553    
0.41654      0.0331962    0.000981786  0.0796952    
0.41892      0.0335701    0.000987004  0.0801349    
0.4213       0.033946     0.000992217  0.0805743    
0.42368      0.0343238    0.000997422  0.0810135    
0.42606      0.0347036    0.00100262   0.0814524    
0.42844      0.0350854    0.00100781   0.081891     
0.43082      0.0354691    0.001013     0.0823294    
0.4332       0.0358549    0.00101818   0.0827675    
0.43558      0.0362426    0.00102335   0.0832053    
0.43796      0.0366322    0.00102851   0.0836428    
0.44034      0.0370238    0.00103367   0.0840801    
0.44272      0.0374174    0.00103882   0.084517     
0.4451       0.0378129    0.00104397   0.0849537    
0.44748      0.0382104    0.0010491    0.0853901    
0.44986      0.0386098    0.00105423   0.0858263    
0.45224      0.0390112    0.00105936   0.0862621    
0.45462      0.0394145    0.00106447   0.0866977    
0.457        0.0398197    0.00106958   0.0871329    
0.45938      0.0402269    0.00107468   0.0875679    
0.46176      0.0406361    0.00107978   0.0880026    
0.46414      0.0410471    0.00108487   0.088437     
0.46652      0.0414601    0.00108995   0.0888711    
0.4689       0.0418751    0.00109502   0.0893049    
0.47128      0.0422919    0.00110009   0.0897384    
0.47366      0.0427107    0.00110514   0.0901716    
0.47604      0.0431314    0.00111019   0.0906045    
0.47842      0.043554     0.00111524   0.0910371    
0.4808       0.0439785    0.00112027   0.0914694    
0.48318      0.0444049    0.0011253    0.0919015    
0.48556      0.0448333    0.00113032   0.0923332    
0.48794      0.0452635    0.00113534   0.0927646    
0.49032      0.0456957    0.00114034   0.0931956    
0.4927       0.0461297    0.00114534   0.0936264    
0.49508      0.0465657    0.00115033   0.0940569    
0.49746      0.0470035    0.00115531   0.0944871    
0.49984      0.0474433    0.00116029   0.0949169    
0.50222      0.0478849    0.00116525   0.0953464    
0.5046       0.0483284    0.00117021   0.0957756    
0.50698      0.0487738    0.00117517   0.0962045    
0.50936      0.049221     0.00118011   0.0966331    
0.51174      0.0496702    0.00118504   0.0970614    
0.51412      0.0501212    0.00118997   0.0974893    
0.5165       0.0505741    0.00119489   0.0979169    
0.51888      0.0510288    0.0011998    0.0983442    
0.52126      0.0514855    0.00120471   0.0987712    
0.52364      0.0519439    0.0012096    0.0991978    
0.52602      0.0524043    0.00121449   0.0996241    
0.5284       0.0528665    0.00121937   0.10005      
0.53078      0.0533305    0.00122424   0.100476     
0.53316      0.0537964    0.00122911   0.100901     
0.53554      0.0542641    0.00123396   0.101326     
0.53792      0.0547337    0.00123881   0.101751     
0.5403       0.0552051    0.00124365   0.102175     
0.54268      0.0556784    0.00124848   0.102599     
0.54506      0.0561535    0.0012533    0.103023     
0.54744      0.0566304    0.00125811   0.103446     
0.54982      0.0571091    0.00126292   0.103869     
0.5522       0.0575897    0.00126771   0.104291     
0.55458      0.0580721    0.0012725    0.104714     
0.55696      0.0585563    0.00127728   0.105136     
0.55934      0.0590423    0.00128205   0.105557     
0.56172      0.0595301    0.00128681   0.105978     
0.5641       0.0600198    0.00129157   0.106399     
0.56648      0.0605112    0.00129631   0.10682      
0.56886      0.0610044    0.00130105   0.10724      
0.57124      0.0614995    0.00130578   0.10766      
0.57362      0.0619963    0.00131049   0.108079     
0.576        0.0624949    0.0013152    0.108498     
0.57838      0.0629953    0.00131991   0.108917     
0.58076      0.0634975    0.0013246    0.109335     
0.58314      0.0640015    0.00132928   0.109753     
0.58552      0.0645072    0.00133396   0.110171     
0.5879       0.0650148    0.00133862   0.110588     
0.59028      0.0655241    0.00134328   0.111005     
0.59266      0.0660351    0.00134793   0.111422     
0.59504      0.0665479    0.00135257   0.111838     
0.59742      0.0670625    0.00135719   0.112254     
0.5998       0.0675789    0.00136182   0.112669     
0.60218      0.068097     0.00136643   0.113084     
0.60456      0.0686168    0.00137103   0.113499     
0.60694      0.0691384    0.00137562   0.113913     
0.60932      0.0696617    0.00138021   0.114327     
0.6117       0.0701868    0.00138478   0.114741     
0.61408      0.0707136    0.00138935   0.115154     
0.61646      0.0712421    0.0013939    0.115567     
0.61884      0.0717724    0.00139845   0.115979     
0.62122      0.0723044    0.00140299   0.116391     
0.6236       0.0728381    0.00140751   0.116803     
0.62598      0.0733735    0.00141203   0.117214     
0.62836      0.0739107    0.00141654   0.117625     
0.63074      0.0744496    0.00142104   0.118035     
0.63312      0.0749901    0.00142553   0.118445     
0.6355       0.0755324    0.00143001   0.118855     
0.63788      0.0760764    0.00143448   0.119264     
0.64026      0.076622     0.00143894   0.119673     
0.64264      0.0771694    0.0014434    0.120082     
0.64502      0.0777184    0.00144784   0.12049      
0.6474       0.0782691    0.00145227   0.120898     
0.64978      0.0788216    0.00145669   0.121305     
0.65216      0.0793756    0.0014611    0.121712     
0.65454      0.0799314    0.00146551   0.122118     
0.65692      0.0804888    0.0014699    0.122525     
0.6593       0.0810479    0.00147428   0.12293      
0.66168      0.0816087    0.00147866   0.123336     
0.66406      0.0821711    0.00148302   0.123741     
0.66644      0.0827352    0.00148737   0.124145     
0.66882      0.0833009    0.00149172   0.124549     
0.6712       0.0838683    0.00149605   0.124953     
0.67358      0.0844373    0.00150037   0.125356     
0.67596      0.085008     0.00150469   0.125759     
0.67834      0.0855803    0.00150899   0.126161     
0.68072      0.0861542    0.00151328   0.126563     
0.6831       0.0867298    0.00151757   0.126965     
0.68548      0.087307     0.00152184   0.127366     
0.68786      0.0878858    0.0015261    0.127767     
0.69024      0.0884662    0.00153036   0.128167     
0.69262      0.0890482    0.0015346    0.128567     
0.695        0.0896319    0.00153883   0.128967     
0.69738      0.0902171    0.00154305   0.129366     
0.69976      0.090804     0.00154726   0.129764     
0.70214      0.0913924    0.00155146   0.130163     
0.70452      0.0919825    0.00155565   0.13056      
0.7069       0.0925741    0.00155983   0.130958     
0.70928      0.0931673    0.001564     0.131355     
0.71166      0.0937621    0.00156816   0.131751     
0.71404      0.0943585    0.00157231   0.132147     
0.71642      0.0949564    0.00157645   0.132543     
0.7188       0.095556     0.00158058   0.132938     
0.72118      0.096157     0.00158469   0.133333     
0.72356      0.0967597    0.0015888    0.133727     
0.72594      0.0973639    0.00159289   0.134121     
0.72832      0.0979696    0.00159698   0.134515     
0.7307       0.098577     0.00160105   0.134908     
0.73308      0.0991858    0.00160512   0.1353       
0.73546      0.0997962    0.00160917   0.135692     
0.73784      0.100408     0.00161321   0.136084     
0.74022      0.101022     0.00161724   0.136475     
0.7426       0.101637     0.00162126   0.136866     
0.74498      0.102253     0.00162527   0.137256     
0.74736      0.102871     0.00162927   0.137646     
0.74974      0.103491     0.00163326   0.138035     
0.75212      0.104112     0.00163723   0.138424     
0.7545       0.104734     0.0016412    0.138813     
0.75688      0.105358     0.00164515   0.139201     
0.75926      0.105984     0.0016491    0.139589     
0.76164      0.106611     0.00165303   0.139976     
0.76402      0.10724      0.00165695   0.140362     
0.7664       0.10787      0.00166086   0.140749     
0.76878      0.108501     0.00166476   0.141134     
0.77116      0.109134     0.00166865   0.14152      
0.77354      0.109769     0.00167252   0.141904     
0.77592      0.110405     0.00167639   0.142289     
0.7783       0.111042     0.00168024   0.142673     
0.78068      0.111681     0.00168409   0.143056     
0.78306      0.112321     0.00168792   0.143439     
0.78544      0.112963     0.00169174   0.143821     
0.78782      0.113606     0.00169555   0.144203     
0.7902       0.114251     0.00169934   0.144585     
0.79258      0.114897     0.00170313   0.144966     
0.79496      0.115545     0.0017069    0.145347     
0.79734      0.116194     0.00171067   0.145727     
0.79972      0.116844     0.00171442   0.146106     
0.8021       0.117496     0.00171816   0.146486     
0.80448      0.118149     0.00172189   0.146864     
0.80686      0.118804     0.0017256    0.147242     
0.80924      0.11946      0.00172931   0.14762      
0.81162      0.120118     0.001733     0.147997     
0.814        0.120776     0.00173669   0.148374     
0.81638      0.121437     0.00174036   0.14875      
0.81876      0.122098     0.00174402   0.149126     
0.82114      0.122761     0.00174766   0.149501     
0.82352      0.123426     0.0017513    0.149876     
0.8259       0.124092     0.00175492   0.15025      
0.82828      0.124759     0.00175853   0.150624     
0.83066      0.125428     0.00176213   0.150997     
0.83304      0.126097     0.00176572   0.15137      
0.83542      0.126769     0.0017693    0.151743     
0.8378       0.127441     0.00177286   0.152114     
0.84018      0.128115     0.00177641   0.152486     
0.84256      0.128791     0.00177996   0.152857     
0.84494      0.129468     0.00178348   0.153227     
0.84732      0.130146     0.001787     0.153597     
0.8497       0.130825     0.00179051   0.153966     
0.85208      0.131506     0.001794     0.154335     
0.85446      0.132188     0.00179748   0.154703     
0.85684      0.132871     0.00180095   0.155071     
0.85922      0.133556     0.0018044    0.155438     
0.8616       0.134242     0.00180785   0.155805     
0.86398      0.134929     0.00181128   0.156171     
0.86636      0.135617     0.0018147    0.156537     
0.86874      0.136307     0.00181811   0.156902     
0.87112      0.136998     0.0018215    0.157267     
0.8735       0.137691     0.00182489   0.157631     
0.87588      0.138385     0.00182826   0.157995     
0.87826      0.13908      0.00183162   0.158358     
0.88064      0.139776     0.00183496   0.158721     
0.88302      0.140474     0.0018383    0.159083     
0.8854       0.141172     0.00184162   0.159445     
0.88778      0.141872     0.00184493   0.159806     
0.89016      0.142574     0.00184822   0.160166     
0.89254      0.143276     0.00185151   0.160526     
0.89492      0.14398      0.00185478   0.160886     
0.8973       0.144685     0.00185804   0.161245     
0.89968      0.145391     0.00186129   0.161604     
0.90206      0.146099     0.00186452   0.161962     
0.90444      0.146808     0.00186774   0.162319     
0.90682      0.147518     0.00187095   0.162676     
0.9092       0.148229     0.00187415   0.163032     
0.91158      0.148941     0.00187733   0.163388     
0.91396      0.149655     0.00188051   0.163743     
0.91634      0.15037      0.00188367   0.164098     
0.91872      0.151086     0.00188681   0.164453     
0.9211       0.151803     0.00188995   0.164806     
0.92348      0.152521     0.00189307   0.165159     
0.92586      0.153241     0.00189617   0.165512     
0.92824      0.153962     0.00189927   0.165864     
0.93062      0.154684     0.00190235   0.166216     
0.933        0.155407     0.00190542   0.166567     
0.93538      0.156131     0.00190848   0.166917     
0.93776      0.156856     0.00191152   0.167267     
0.94014      0.157583     0.00191456   0.167617     
0.94252      0.158311     0.00191757   0.167965     
0.9449       0.15904      0.00192058   0.168314     
0.94728      0.15977      0.00192357   0.168661     
0.94966      0.160501     0.00192655   0.169009     
0.95204      0.161233     0.00192952   0.169355     
0.95442      0.161966     0.00193247   0.169701     
0.9568       0.162701     0.00193541   0.170047     
0.95918      0.163437     0.00193834   0.170392     
0.96156      0.164173     0.00194126   0.170736     
0.96394      0.164911     0.00194416   0.17108      
0.96632      0.16565      0.00194705   0.171424     
0.9687       0.16639      0.00194992   0.171766     
0.97108      0.167131     0.00195278   0.172109     
0.97346      0.167873     0.00195563   0.17245      
0.97584      0.168617     0.00195847   0.172791     
0.97822      0.169361     0.00196129   0.173132     
0.9806       0.170107     0.0019641    0.173472     
0.98298      0.170853     0.0019669    0.173811     
