# Mass = 0.0442061 Mev*(hbarc)^2/2 
# R = 2.88468 fm 
# a = 0.662 fm 
# V0 = 60.3766 MeV 
# RSO = 2.65574 fm 
# aSO = 0.662 fm 
# VSO = 32.9772 MeV fm^2
# l = 0 
# two_j = 1 
# two_t = -1 
# Energy = -34.3604 MeV
# r 	 V_eff [2m/hbar/hbar]
0.01 	-59.6015
0.012398 	-59.5987
0.014796 	-59.5959
0.017194 	-59.5931
0.019592 	-59.5903
0.02199 	-59.5875
0.024388 	-59.5847
0.026786 	-59.5818
0.029184 	-59.579
0.031582 	-59.5761
0.03398 	-59.5733
0.036378 	-59.5704
0.038776 	-59.5675
0.041174 	-59.5646
0.043572 	-59.5617
0.04597 	-59.5588
0.048368 	-59.5558
0.050766 	-59.5529
0.053164 	-59.55
0.055562 	-59.547
0.05796 	-59.544
0.060358 	-59.541
0.062756 	-59.5381
0.065154 	-59.5351
0.067552 	-59.532
0.06995 	-59.529
0.072348 	-59.526
0.074746 	-59.5229
0.077144 	-59.5199
0.079542 	-59.5168
0.08194 	-59.5138
0.084338 	-59.5107
0.086736 	-59.5076
0.089134 	-59.5045
0.091532 	-59.5013
0.09393 	-59.4982
0.096328 	-59.4951
0.098726 	-59.4919
0.101124 	-59.4888
0.103522 	-59.4856
0.10592 	-59.4824
0.108318 	-59.4792
0.110716 	-59.476
0.113114 	-59.4728
0.115512 	-59.4695
0.11791 	-59.4663
0.120308 	-59.463
0.122706 	-59.4598
0.125104 	-59.4565
0.127502 	-59.4532
0.1299 	-59.4499
0.132298 	-59.4466
0.134696 	-59.4433
0.137094 	-59.44
0.139492 	-59.4366
0.14189 	-59.4332
0.144288 	-59.4299
0.146686 	-59.4265
0.149084 	-59.4231
0.151482 	-59.4197
0.15388 	-59.4163
0.156278 	-59.4129
0.158676 	-59.4094
0.161074 	-59.406
0.163472 	-59.4025
0.16587 	-59.399
0.168268 	-59.3955
0.170666 	-59.392
0.173064 	-59.3885
0.175462 	-59.385
0.17786 	-59.3814
0.180258 	-59.3779
0.182656 	-59.3743
0.185054 	-59.3708
0.187452 	-59.3672
0.18985 	-59.3636
0.192248 	-59.3599
0.194646 	-59.3563
0.197044 	-59.3527
0.199442 	-59.349
0.20184 	-59.3454
0.204238 	-59.3417
0.206636 	-59.338
0.209034 	-59.3343
0.211432 	-59.3306
0.21383 	-59.3268
0.216228 	-59.3231
0.218626 	-59.3193
0.221024 	-59.3156
0.223422 	-59.3118
0.22582 	-59.308
0.228218 	-59.3042
0.230616 	-59.3004
0.233014 	-59.2965
0.235412 	-59.2927
0.23781 	-59.2888
0.240208 	-59.2849
0.242606 	-59.2811
0.245004 	-59.2771
0.247402 	-59.2732
0.2498 	-59.2693
0.252198 	-59.2654
0.254596 	-59.2614
0.256994 	-59.2574
0.259392 	-59.2534
0.26179 	-59.2494
0.264188 	-59.2454
0.266586 	-59.2414
0.268984 	-59.2374
0.271382 	-59.2333
0.27378 	-59.2292
0.276178 	-59.2251
0.278576 	-59.221
0.280974 	-59.2169
0.283372 	-59.2128
0.28577 	-59.2087
0.288168 	-59.2045
0.290566 	-59.2003
0.292964 	-59.1962
0.295362 	-59.192
0.29776 	-59.1877
0.300158 	-59.1835
0.302556 	-59.1793
0.304954 	-59.175
0.307352 	-59.1707
0.30975 	-59.1664
0.312148 	-59.1621
0.314546 	-59.1578
0.316944 	-59.1535
0.319342 	-59.1491
0.32174 	-59.1448
0.324138 	-59.1404
0.326536 	-59.136
0.328934 	-59.1316
0.331332 	-59.1272
0.33373 	-59.1227
0.336128 	-59.1183
0.338526 	-59.1138
0.340924 	-59.1093
0.343322 	-59.1048
0.34572 	-59.1003
0.348118 	-59.0958
0.350516 	-59.0912
0.352914 	-59.0867
0.355312 	-59.0821
0.35771 	-59.0775
0.360108 	-59.0729
0.362506 	-59.0682
0.364904 	-59.0636
0.367302 	-59.0589
0.3697 	-59.0543
0.372098 	-59.0496
0.374496 	-59.0449
0.376894 	-59.0401
0.379292 	-59.0354
0.38169 	-59.0306
0.384088 	-59.0259
0.386486 	-59.0211
0.388884 	-59.0163
0.391282 	-59.0114
0.39368 	-59.0066
0.396078 	-59.0017
0.398476 	-58.9969
0.400874 	-58.992
0.403272 	-58.9871
0.40567 	-58.9821
0.408068 	-58.9772
0.410466 	-58.9722
0.412864 	-58.9672
0.415262 	-58.9623
0.41766 	-58.9572
0.420058 	-58.9522
0.422456 	-58.9472
0.424854 	-58.9421
0.427252 	-58.937
0.42965 	-58.9319
0.432048 	-58.9268
0.434446 	-58.9217
0.436844 	-58.9165
0.439242 	-58.9113
0.44164 	-58.9062
0.444038 	-58.901
0.446436 	-58.8957
0.448834 	-58.8905
0.451232 	-58.8852
0.45363 	-58.8799
0.456028 	-58.8747
0.458426 	-58.8693
0.460824 	-58.864
0.463222 	-58.8587
0.46562 	-58.8533
0.468018 	-58.8479
0.470416 	-58.8425
0.472814 	-58.8371
0.475212 	-58.8316
0.47761 	-58.8262
0.480008 	-58.8207
0.482406 	-58.8152
0.484804 	-58.8097
0.487202 	-58.8041
0.4896 	-58.7986
0.491998 	-58.793
0.494396 	-58.7874
0.496794 	-58.7818
0.499192 	-58.7761
0.50159 	-58.7705
0.503988 	-58.7648
0.506386 	-58.7591
0.508784 	-58.7534
0.511182 	-58.7477
0.51358 	-58.7419
0.515978 	-58.7362
0.518376 	-58.7304
0.520774 	-58.7246
0.523172 	-58.7187
0.52557 	-58.7129
0.527968 	-58.707
0.530366 	-58.7011
0.532764 	-58.6952
0.535162 	-58.6893
0.53756 	-58.6833
0.539958 	-58.6774
0.542356 	-58.6714
0.544754 	-58.6653
0.547152 	-58.6593
0.54955 	-58.6533
0.551948 	-58.6472
0.554346 	-58.6411
0.556744 	-58.635
0.559142 	-58.6288
0.56154 	-58.6227
0.563938 	-58.6165
0.566336 	-58.6103
0.568734 	-58.6041
0.571132 	-58.5978
0.57353 	-58.5916
0.575928 	-58.5853
0.578326 	-58.579
0.580724 	-58.5726
0.583122 	-58.5663
0.58552 	-58.5599
0.587918 	-58.5535
0.590316 	-58.5471
0.592714 	-58.5407
0.595112 	-58.5342
0.59751 	-58.5277
0.599908 	-58.5212
0.602306 	-58.5147
0.604704 	-58.5082
0.607102 	-58.5016
0.6095 	-58.495
0.611898 	-58.4884
0.614296 	-58.4817
0.616694 	-58.4751
0.619092 	-58.4684
0.62149 	-58.4617
0.623888 	-58.455
0.626286 	-58.4482
0.628684 	-58.4415
0.631082 	-58.4347
0.63348 	-58.4278
0.635878 	-58.421
0.638276 	-58.4141
0.640674 	-58.4072
0.643072 	-58.4003
0.64547 	-58.3934
0.647868 	-58.3864
0.650266 	-58.3794
0.652664 	-58.3724
0.655062 	-58.3654
0.65746 	-58.3584
0.659858 	-58.3513
0.662256 	-58.3442
0.664654 	-58.337
0.667052 	-58.3299
0.66945 	-58.3227
0.671848 	-58.3155
0.674246 	-58.3083
0.676644 	-58.3011
0.679042 	-58.2938
0.68144 	-58.2865
0.683838 	-58.2792
0.686236 	-58.2718
0.688634 	-58.2644
0.691032 	-58.257
0.69343 	-58.2496
0.695828 	-58.2422
0.698226 	-58.2347
0.700624 	-58.2272
0.703022 	-58.2197
0.70542 	-58.2121
0.707818 	-58.2046
0.710216 	-58.197
0.712614 	-58.1894
0.715012 	-58.1817
0.71741 	-58.174
0.719808 	-58.1663
0.722206 	-58.1586
0.724604 	-58.1509
0.727002 	-58.1431
0.7294 	-58.1353
0.731798 	-58.1274
0.734196 	-58.1196
0.736594 	-58.1117
0.738992 	-58.1038
0.74139 	-58.0959
0.743788 	-58.0879
0.746186 	-58.0799
0.748584 	-58.0719
0.750982 	-58.0638
0.75338 	-58.0558
0.755778 	-58.0477
0.758176 	-58.0395
0.760574 	-58.0314
0.762972 	-58.0232
0.76537 	-58.015
0.767768 	-58.0068
0.770166 	-57.9985
0.772564 	-57.9902
0.774962 	-57.9819
0.77736 	-57.9736
0.779758 	-57.9652
0.782156 	-57.9568
0.784554 	-57.9484
0.786952 	-57.9399
0.78935 	-57.9314
0.791748 	-57.9229
0.794146 	-57.9144
0.796544 	-57.9058
0.798942 	-57.8972
0.80134 	-57.8886
0.803738 	-57.8799
0.806136 	-57.8712
0.808534 	-57.8625
0.810932 	-57.8538
0.81333 	-57.845
0.815728 	-57.8362
0.818126 	-57.8274
0.820524 	-57.8185
0.822922 	-57.8096
0.82532 	-57.8007
0.827718 	-57.7918
0.830116 	-57.7828
0.832514 	-57.7738
0.834912 	-57.7648
0.83731 	-57.7557
0.839708 	-57.7466
0.842106 	-57.7375
0.844504 	-57.7283
0.846902 	-57.7191
0.8493 	-57.7099
0.851698 	-57.7007
0.854096 	-57.6914
0.856494 	-57.6821
0.858892 	-57.6727
0.86129 	-57.6634
0.863688 	-57.6539
0.866086 	-57.6445
0.868484 	-57.6351
0.870882 	-57.6256
0.87328 	-57.616
0.875678 	-57.6065
0.878076 	-57.5969
0.880474 	-57.5873
0.882872 	-57.5776
0.88527 	-57.5679
0.887668 	-57.5582
0.890066 	-57.5485
0.892464 	-57.5387
0.894862 	-57.5289
0.89726 	-57.519
0.899658 	-57.5091
0.902056 	-57.4992
0.904454 	-57.4893
0.906852 	-57.4793
0.90925 	-57.4693
0.911648 	-57.4593
0.914046 	-57.4492
0.916444 	-57.4391
0.918842 	-57.4289
0.92124 	-57.4188
0.923638 	-57.4086
0.926036 	-57.3983
0.928434 	-57.3881
0.930832 	-57.3777
0.93323 	-57.3674
0.935628 	-57.357
0.938026 	-57.3466
0.940424 	-57.3362
0.942822 	-57.3257
0.94522 	-57.3152
0.947618 	-57.3047
0.950016 	-57.2941
0.952414 	-57.2835
0.954812 	-57.2728
0.95721 	-57.2621
0.959608 	-57.2514
0.962006 	-57.2407
0.964404 	-57.2299
0.966802 	-57.2191
0.9692 	-57.2082
0.971598 	-57.1973
0.973996 	-57.1864
0.976394 	-57.1754
0.978792 	-57.1644
0.98119 	-57.1534
0.983588 	-57.1423
0.985986 	-57.1312
0.988384 	-57.1201
0.990782 	-57.1089
0.99318 	-57.0977
0.995578 	-57.0864
0.997976 	-57.0751
1.00037 	-57.0638
1.00277 	-57.0524
1.00517 	-57.0411
1.00757 	-57.0296
1.00997 	-57.0181
1.01236 	-57.0066
1.01476 	-56.9951
1.01716 	-56.9835
1.01956 	-56.9719
1.02196 	-56.9602
1.02435 	-56.9485
1.02675 	-56.9368
1.02915 	-56.925
1.03155 	-56.9132
1.03395 	-56.9014
1.03634 	-56.8895
1.03874 	-56.8776
1.04114 	-56.8656
1.04354 	-56.8536
1.04594 	-56.8416
1.04833 	-56.8295
1.05073 	-56.8174
1.05313 	-56.8053
1.05553 	-56.7931
1.05793 	-56.7808
1.06032 	-56.7686
1.06272 	-56.7563
1.06512 	-56.7439
1.06752 	-56.7315
1.06992 	-56.7191
1.07231 	-56.7066
1.07471 	-56.6941
1.07711 	-56.6816
1.07951 	-56.669
1.08191 	-56.6564
1.0843 	-56.6437
1.0867 	-56.631
1.0891 	-56.6183
1.0915 	-56.6055
1.0939 	-56.5926
1.09629 	-56.5798
1.09869 	-56.5669
1.10109 	-56.5539
1.10349 	-56.5409
1.10589 	-56.5279
1.10828 	-56.5148
1.11068 	-56.5017
1.11308 	-56.4885
1.11548 	-56.4753
1.11788 	-56.4621
1.12027 	-56.4488
1.12267 	-56.4355
1.12507 	-56.4221
1.12747 	-56.4087
1.12987 	-56.3953
1.13226 	-56.3818
1.13466 	-56.3683
1.13706 	-56.3547
1.13946 	-56.3411
1.14186 	-56.3274
1.14425 	-56.3137
1.14665 	-56.2999
1.14905 	-56.2862
1.15145 	-56.2723
1.15385 	-56.2584
1.15624 	-56.2445
1.15864 	-56.2306
1.16104 	-56.2165
1.16344 	-56.2025
1.16584 	-56.1884
1.16823 	-56.1743
1.17063 	-56.1601
1.17303 	-56.1458
1.17543 	-56.1316
1.17783 	-56.1172
1.18022 	-56.1029
1.18262 	-56.0885
1.18502 	-56.074
1.18742 	-56.0595
1.18982 	-56.045
1.19221 	-56.0304
1.19461 	-56.0158
1.19701 	-56.0011
1.19941 	-55.9864
1.20181 	-55.9716
1.2042 	-55.9568
1.2066 	-55.9419
1.209 	-55.927
1.2114 	-55.9121
1.2138 	-55.8971
1.21619 	-55.882
1.21859 	-55.8669
1.22099 	-55.8518
1.22339 	-55.8366
1.22579 	-55.8214
1.22818 	-55.8061
1.23058 	-55.7908
1.23298 	-55.7754
1.23538 	-55.76
1.23778 	-55.7445
1.24017 	-55.729
1.24257 	-55.7134
1.24497 	-55.6978
1.24737 	-55.6821
1.24977 	-55.6664
1.25216 	-55.6507
1.25456 	-55.6349
1.25696 	-55.619
1.25936 	-55.6031
1.26176 	-55.5872
1.26415 	-55.5712
1.26655 	-55.5551
1.26895 	-55.539
1.27135 	-55.5229
1.27375 	-55.5067
1.27614 	-55.4905
1.27854 	-55.4742
1.28094 	-55.4578
1.28334 	-55.4414
1.28574 	-55.425
1.28813 	-55.4085
1.29053 	-55.392
1.29293 	-55.3754
1.29533 	-55.3587
1.29773 	-55.342
1.30012 	-55.3253
1.30252 	-55.3085
1.30492 	-55.2917
1.30732 	-55.2748
1.30972 	-55.2578
1.31211 	-55.2408
1.31451 	-55.2238
1.31691 	-55.2067
1.31931 	-55.1895
1.32171 	-55.1723
1.3241 	-55.1551
1.3265 	-55.1378
1.3289 	-55.1204
1.3313 	-55.103
1.3337 	-55.0856
1.33609 	-55.068
1.33849 	-55.0505
1.34089 	-55.0329
1.34329 	-55.0152
1.34569 	-54.9975
1.34808 	-54.9797
1.35048 	-54.9619
1.35288 	-54.944
1.35528 	-54.9261
1.35768 	-54.9081
1.36007 	-54.89
1.36247 	-54.8719
1.36487 	-54.8538
1.36727 	-54.8356
1.36967 	-54.8173
1.37206 	-54.799
1.37446 	-54.7806
1.37686 	-54.7622
1.37926 	-54.7438
1.38166 	-54.7252
1.38405 	-54.7066
1.38645 	-54.688
1.38885 	-54.6693
1.39125 	-54.6506
1.39365 	-54.6318
1.39604 	-54.6129
1.39844 	-54.594
1.40084 	-54.575
1.40324 	-54.556
1.40564 	-54.5369
1.40803 	-54.5178
1.41043 	-54.4986
1.41283 	-54.4794
1.41523 	-54.46
1.41763 	-54.4407
1.42002 	-54.4213
1.42242 	-54.4018
1.42482 	-54.3823
1.42722 	-54.3627
1.42962 	-54.343
1.43201 	-54.3233
1.43441 	-54.3036
1.43681 	-54.2838
1.43921 	-54.2639
1.44161 	-54.244
1.444 	-54.224
1.4464 	-54.2039
1.4488 	-54.1838
1.4512 	-54.1637
1.4536 	-54.1435
1.45599 	-54.1232
1.45839 	-54.1028
1.46079 	-54.0824
1.46319 	-54.062
1.46559 	-54.0415
1.46798 	-54.0209
1.47038 	-54.0003
1.47278 	-53.9796
1.47518 	-53.9589
1.47758 	-53.938
1.47997 	-53.9172
1.48237 	-53.8963
1.48477 	-53.8753
1.48717 	-53.8542
1.48957 	-53.8331
1.49196 	-53.812
1.49436 	-53.7907
1.49676 	-53.7695
1.49916 	-53.7481
1.50156 	-53.7267
1.50395 	-53.7052
1.50635 	-53.6837
1.50875 	-53.6621
1.51115 	-53.6405
1.51355 	-53.6188
1.51594 	-53.597
1.51834 	-53.5752
1.52074 	-53.5533
1.52314 	-53.5313
1.52554 	-53.5093
1.52793 	-53.4872
1.53033 	-53.4651
1.53273 	-53.4429
1.53513 	-53.4206
1.53753 	-53.3983
1.53992 	-53.3759
1.54232 	-53.3535
1.54472 	-53.331
1.54712 	-53.3084
1.54952 	-53.2857
1.55191 	-53.263
1.55431 	-53.2403
1.55671 	-53.2174
1.55911 	-53.1946
1.56151 	-53.1716
1.5639 	-53.1486
1.5663 	-53.1255
1.5687 	-53.1024
1.5711 	-53.0792
1.5735 	-53.0559
1.57589 	-53.0326
1.57829 	-53.0092
1.58069 	-52.9857
1.58309 	-52.9622
1.58549 	-52.9386
1.58788 	-52.9149
1.59028 	-52.8912
1.59268 	-52.8674
1.59508 	-52.8436
1.59748 	-52.8196
1.59987 	-52.7957
1.60227 	-52.7716
1.60467 	-52.7475
1.60707 	-52.7233
1.60947 	-52.6991
1.61186 	-52.6748
1.61426 	-52.6504
1.61666 	-52.626
1.61906 	-52.6015
1.62146 	-52.5769
1.62385 	-52.5523
1.62625 	-52.5276
1.62865 	-52.5028
1.63105 	-52.478
1.63345 	-52.4531
1.63584 	-52.4281
1.63824 	-52.403
1.64064 	-52.3779
1.64304 	-52.3528
1.64544 	-52.3275
1.64783 	-52.3022
1.65023 	-52.2769
1.65263 	-52.2514
1.65503 	-52.2259
1.65743 	-52.2004
1.65982 	-52.1747
1.66222 	-52.149
1.66462 	-52.1232
1.66702 	-52.0974
1.66942 	-52.0715
1.67181 	-52.0455
1.67421 	-52.0194
1.67661 	-51.9933
1.67901 	-51.9671
1.68141 	-51.9409
1.6838 	-51.9146
1.6862 	-51.8882
1.6886 	-51.8617
1.691 	-51.8352
1.6934 	-51.8086
1.69579 	-51.7819
1.69819 	-51.7552
1.70059 	-51.7284
1.70299 	-51.7015
1.70539 	-51.6746
1.70778 	-51.6476
1.71018 	-51.6205
1.71258 	-51.5933
1.71498 	-51.5661
1.71738 	-51.5388
1.71977 	-51.5114
1.72217 	-51.484
1.72457 	-51.4565
1.72697 	-51.4289
1.72937 	-51.4013
1.73176 	-51.3736
1.73416 	-51.3458
1.73656 	-51.3179
1.73896 	-51.29
1.74136 	-51.262
1.74375 	-51.2339
1.74615 	-51.2058
1.74855 	-51.1776
1.75095 	-51.1493
1.75335 	-51.121
1.75574 	-51.0925
1.75814 	-51.064
1.76054 	-51.0355
1.76294 	-51.0068
1.76534 	-50.9781
1.76773 	-50.9494
1.77013 	-50.9205
1.77253 	-50.8916
1.77493 	-50.8626
1.77733 	-50.8335
1.77972 	-50.8044
1.78212 	-50.7752
1.78452 	-50.7459
1.78692 	-50.7165
1.78932 	-50.6871
1.79171 	-50.6576
1.79411 	-50.628
1.79651 	-50.5984
1.79891 	-50.5686
1.80131 	-50.5388
1.8037 	-50.509
1.8061 	-50.479
1.8085 	-50.449
1.8109 	-50.4189
1.8133 	-50.3888
1.81569 	-50.3586
1.81809 	-50.3283
1.82049 	-50.2979
1.82289 	-50.2674
1.82529 	-50.2369
1.82768 	-50.2063
1.83008 	-50.1756
1.83248 	-50.1449
1.83488 	-50.1141
1.83728 	-50.0832
1.83967 	-50.0522
1.84207 	-50.0212
1.84447 	-49.9901
1.84687 	-49.9589
1.84927 	-49.9276
1.85166 	-49.8963
1.85406 	-49.8649
1.85646 	-49.8334
1.85886 	-49.8018
1.86126 	-49.7702
1.86365 	-49.7385
1.86605 	-49.7067
1.86845 	-49.6748
1.87085 	-49.6429
1.87325 	-49.6109
1.87564 	-49.5788
1.87804 	-49.5467
1.88044 	-49.5144
1.88284 	-49.4821
1.88524 	-49.4497
1.88763 	-49.4173
1.89003 	-49.3848
1.89243 	-49.3521
1.89483 	-49.3195
1.89723 	-49.2867
1.89962 	-49.2539
1.90202 	-49.221
1.90442 	-49.188
1.90682 	-49.1549
1.90922 	-49.1218
1.91161 	-49.0886
1.91401 	-49.0553
1.91641 	-49.022
1.91881 	-48.9885
1.92121 	-48.955
1.9236 	-48.9214
1.926 	-48.8878
1.9284 	-48.854
1.9308 	-48.8202
1.9332 	-48.7863
1.93559 	-48.7524
1.93799 	-48.7183
1.94039 	-48.6842
1.94279 	-48.65
1.94519 	-48.6158
1.94758 	-48.5814
1.94998 	-48.547
1.95238 	-48.5125
1.95478 	-48.478
1.95718 	-48.4433
1.95957 	-48.4086
1.96197 	-48.3738
1.96437 	-48.3389
1.96677 	-48.304
1.96917 	-48.2689
1.97156 	-48.2338
1.97396 	-48.1987
1.97636 	-48.1634
1.97876 	-48.1281
1.98116 	-48.0927
1.98355 	-48.0572
1.98595 	-48.0216
1.98835 	-47.986
1.99075 	-47.9503
1.99315 	-47.9145
1.99554 	-47.8786
1.99794 	-47.8427
2.00034 	-47.8067
2.00274 	-47.7706
2.00514 	-47.7344
2.00753 	-47.6982
2.00993 	-47.6619
2.01233 	-47.6255
2.01473 	-47.589
2.01713 	-47.5524
2.01952 	-47.5158
2.02192 	-47.4791
2.02432 	-47.4423
2.02672 	-47.4055
2.02912 	-47.3686
2.03151 	-47.3316
2.03391 	-47.2945
2.03631 	-47.2573
2.03871 	-47.2201
2.04111 	-47.1828
2.0435 	-47.1454
2.0459 	-47.1079
2.0483 	-47.0704
2.0507 	-47.0328
2.0531 	-46.9951
2.05549 	-46.9573
2.05789 	-46.9195
2.06029 	-46.8815
2.06269 	-46.8436
2.06509 	-46.8055
2.06748 	-46.7673
2.06988 	-46.7291
2.07228 	-46.6908
2.07468 	-46.6524
2.07708 	-46.614
2.07947 	-46.5755
2.08187 	-46.5369
2.08427 	-46.4982
2.08667 	-46.4594
2.08907 	-46.4206
2.09146 	-46.3817
2.09386 	-46.3427
2.09626 	-46.3036
2.09866 	-46.2645
2.10106 	-46.2253
2.10345 	-46.186
2.10585 	-46.1467
2.10825 	-46.1072
2.11065 	-46.0677
2.11305 	-46.0281
2.11544 	-45.9885
2.11784 	-45.9487
2.12024 	-45.9089
2.12264 	-45.869
2.12504 	-45.8291
2.12743 	-45.789
2.12983 	-45.7489
2.13223 	-45.7087
2.13463 	-45.6685
2.13703 	-45.6281
2.13942 	-45.5877
2.14182 	-45.5472
2.14422 	-45.5067
2.14662 	-45.466
2.14902 	-45.4253
2.15141 	-45.3845
2.15381 	-45.3437
2.15621 	-45.3028
2.15861 	-45.2617
2.16101 	-45.2207
2.1634 	-45.1795
2.1658 	-45.1383
2.1682 	-45.097
2.1706 	-45.0556
2.173 	-45.0141
2.17539 	-44.9726
2.17779 	-44.931
2.18019 	-44.8893
2.18259 	-44.8476
2.18499 	-44.8058
2.18738 	-44.7639
2.18978 	-44.7219
2.19218 	-44.6799
2.19458 	-44.6378
2.19698 	-44.5956
2.19937 	-44.5533
2.20177 	-44.511
2.20417 	-44.4686
2.20657 	-44.4261
2.20897 	-44.3836
2.21136 	-44.3409
2.21376 	-44.2982
2.21616 	-44.2555
2.21856 	-44.2126
2.22096 	-44.1697
2.22335 	-44.1267
2.22575 	-44.0837
2.22815 	-44.0405
2.23055 	-43.9973
2.23295 	-43.9541
2.23534 	-43.9107
2.23774 	-43.8673
2.24014 	-43.8238
2.24254 	-43.7803
2.24494 	-43.7366
2.24733 	-43.6929
2.24973 	-43.6492
2.25213 	-43.6053
2.25453 	-43.5614
2.25693 	-43.5174
2.25932 	-43.4734
2.26172 	-43.4293
2.26412 	-43.3851
2.26652 	-43.3408
2.26892 	-43.2965
2.27131 	-43.2521
2.27371 	-43.2076
2.27611 	-43.1631
2.27851 	-43.1185
2.28091 	-43.0738
2.2833 	-43.029
2.2857 	-42.9842
2.2881 	-42.9393
2.2905 	-42.8944
2.2929 	-42.8493
2.29529 	-42.8042
2.29769 	-42.7591
2.30009 	-42.7139
2.30249 	-42.6686
2.30489 	-42.6232
2.30728 	-42.5778
2.30968 	-42.5323
2.31208 	-42.4867
2.31448 	-42.4411
2.31688 	-42.3953
2.31927 	-42.3496
2.32167 	-42.3037
2.32407 	-42.2578
2.32647 	-42.2119
2.32887 	-42.1658
2.33126 	-42.1197
2.33366 	-42.0736
2.33606 	-42.0273
2.33846 	-41.981
2.34086 	-41.9347
2.34325 	-41.8882
2.34565 	-41.8417
2.34805 	-41.7952
2.35045 	-41.7485
2.35285 	-41.7019
2.35524 	-41.6551
2.35764 	-41.6083
2.36004 	-41.5614
2.36244 	-41.5144
2.36484 	-41.4674
2.36723 	-41.4204
2.36963 	-41.3732
2.37203 	-41.326
2.37443 	-41.2788
2.37683 	-41.2314
2.37922 	-41.184
2.38162 	-41.1366
2.38402 	-41.0891
2.38642 	-41.0415
2.38882 	-40.9938
2.39121 	-40.9461
2.39361 	-40.8984
2.39601 	-40.8506
2.39841 	-40.8027
2.40081 	-40.7547
2.4032 	-40.7067
2.4056 	-40.6586
2.408 	-40.6105
2.4104 	-40.5623
2.4128 	-40.5141
2.41519 	-40.4658
2.41759 	-40.4174
2.41999 	-40.369
2.42239 	-40.3205
2.42479 	-40.2719
2.42718 	-40.2233
2.42958 	-40.1747
2.43198 	-40.1259
2.43438 	-40.0772
2.43678 	-40.0283
2.43917 	-39.9794
2.44157 	-39.9305
2.44397 	-39.8815
2.44637 	-39.8324
2.44877 	-39.7833
2.45116 	-39.7341
2.45356 	-39.6849
2.45596 	-39.6356
2.45836 	-39.5862
2.46076 	-39.5368
2.46315 	-39.4873
2.46555 	-39.4378
2.46795 	-39.3883
2.47035 	-39.3386
2.47275 	-39.289
2.47514 	-39.2392
2.47754 	-39.1894
2.47994 	-39.1396
2.48234 	-39.0897
2.48474 	-39.0397
2.48713 	-38.9897
2.48953 	-38.9397
2.49193 	-38.8896
2.49433 	-38.8394
2.49673 	-38.7892
2.49912 	-38.7389
2.50152 	-38.6886
2.50392 	-38.6383
2.50632 	-38.5878
2.50872 	-38.5374
2.51111 	-38.4869
2.51351 	-38.4363
2.51591 	-38.3857
2.51831 	-38.335
2.52071 	-38.2843
2.5231 	-38.2335
2.5255 	-38.1827
2.5279 	-38.1318
2.5303 	-38.0809
2.5327 	-38.0299
2.53509 	-37.9789
2.53749 	-37.9279
2.53989 	-37.8768
2.54229 	-37.8256
2.54469 	-37.7744
2.54708 	-37.7232
2.54948 	-37.6719
2.55188 	-37.6205
2.55428 	-37.5691
2.55668 	-37.5177
2.55907 	-37.4662
2.56147 	-37.4147
2.56387 	-37.3632
2.56627 	-37.3115
2.56867 	-37.2599
2.57106 	-37.2082
2.57346 	-37.1565
2.57586 	-37.1047
2.57826 	-37.0528
2.58066 	-37.001
2.58305 	-36.9491
2.58545 	-36.8971
2.58785 	-36.8451
2.59025 	-36.7931
2.59265 	-36.741
2.59504 	-36.6889
2.59744 	-36.6367
2.59984 	-36.5845
2.60224 	-36.5323
2.60464 	-36.48
2.60703 	-36.4277
2.60943 	-36.3753
2.61183 	-36.3229
2.61423 	-36.2705
2.61663 	-36.218
2.61902 	-36.1655
2.62142 	-36.1129
2.62382 	-36.0603
