# Mass = 0.0473265 Mev*(hbarc)^2/2 
# R = 4.82059 fm 
# a = 0.662 fm 
# V0 = 56.2183 MeV 
# RSO = 4.438 fm 
# aSO = 0.662 fm 
# VSO = 28.772 MeV fm^2
# l = 2 
# two_j = 3 
# two_t = 1 
# Energy = -14.6081 MeV
# r 	 V_eff [2m/hbar/hbar]
0.01 	1.26775e+06
0.012398 	824753
0.014796 	579067
0.017194 	428798
0.019592 	330245
0.02199 	262137
0.024388 	213113
0.026786 	176656
0.029184 	148811
0.031582 	127064
0.03398 	109757
0.036378 	95758.2
0.038776 	84275.4
0.041174 	74739.8
0.043572 	66734.8
0.04597 	59949.6
0.048368 	54148.3
0.050766 	49149.5
0.053164 	44811.8
0.055562 	41023.4
0.05796 	37695.5
0.060358 	34756.3
0.062756 	32147.6
0.065154 	29821.5
0.067552 	27738.8
0.06995 	25866.5
0.072348 	24177.4
0.074746 	22648.1
0.077144 	21259.3
0.079542 	19994.1
0.08194 	18838.4
0.084338 	17779.9
0.086736 	16807.9
0.089134 	15913.4
0.091532 	15088.2
0.09393 	14325.4
0.096328 	13618.8
0.098726 	12963.2
0.101124 	12353.6
0.103522 	11785.8
0.10592 	11256.2
0.108318 	10761.4
0.110716 	10298.4
0.113114 	9864.5
0.115512 	9457.35
0.11791 	9074.79
0.120308 	8714.88
0.122706 	8375.86
0.125104 	8056.15
0.127502 	7754.31
0.1299 	7469.03
0.132298 	7199.12
0.134696 	6943.5
0.137094 	6701.17
0.139492 	6471.23
0.14189 	6252.85
0.144288 	6045.27
0.146686 	5847.79
0.149084 	5659.76
0.151482 	5480.58
0.15388 	5309.72
0.156278 	5146.67
0.158676 	4990.94
0.161074 	4842.13
0.163472 	4699.81
0.16587 	4563.62
0.168268 	4433.21
0.170666 	4308.26
0.173064 	4188.47
0.175462 	4073.56
0.17786 	3963.26
0.180258 	3857.33
0.182656 	3755.55
0.185054 	3657.7
0.187452 	3563.58
0.18985 	3473.01
0.192248 	3385.8
0.194646 	3301.8
0.197044 	3220.84
0.199442 	3142.79
0.20184 	3067.5
0.204238 	2994.85
0.206636 	2924.71
0.209034 	2856.98
0.211432 	2791.53
0.21383 	2728.27
0.216228 	2667.11
0.218626 	2607.95
0.221024 	2550.7
0.223422 	2495.29
0.22582 	2441.63
0.228218 	2389.66
0.230616 	2339.3
0.233014 	2290.48
0.235412 	2243.15
0.23781 	2197.24
0.240208 	2152.7
0.242606 	2109.48
0.245004 	2067.52
0.247402 	2026.77
0.2498 	1987.19
0.252198 	1948.74
0.254596 	1911.36
0.256994 	1875.03
0.259392 	1839.7
0.26179 	1805.34
0.264188 	1771.9
0.266586 	1739.37
0.268984 	1707.7
0.271382 	1676.87
0.27378 	1646.84
0.276178 	1617.6
0.278576 	1589.1
0.280974 	1561.33
0.283372 	1534.27
0.28577 	1507.88
0.288168 	1482.15
0.290566 	1457.05
0.292964 	1432.57
0.295362 	1408.68
0.29776 	1385.36
0.300158 	1362.6
0.302556 	1340.39
0.304954 	1318.69
0.307352 	1297.5
0.30975 	1276.8
0.312148 	1256.57
0.314546 	1236.8
0.316944 	1217.49
0.319342 	1198.6
0.32174 	1180.14
0.324138 	1162.08
0.326536 	1144.42
0.328934 	1127.15
0.331332 	1110.25
0.33373 	1093.71
0.336128 	1077.52
0.338526 	1061.68
0.340924 	1046.17
0.343322 	1030.99
0.34572 	1016.12
0.348118 	1001.55
0.350516 	987.285
0.352914 	973.308
0.355312 	959.614
0.35771 	946.194
0.360108 	933.041
0.362506 	920.148
0.364904 	907.508
0.367302 	895.116
0.3697 	882.963
0.372098 	871.045
0.374496 	859.355
0.376894 	847.888
0.379292 	836.637
0.38169 	825.598
0.384088 	814.764
0.386486 	804.132
0.388884 	793.696
0.391282 	783.451
0.39368 	773.393
0.396078 	763.517
0.398476 	753.819
0.400874 	744.294
0.403272 	734.938
0.40567 	725.748
0.408068 	716.72
0.410466 	707.849
0.412864 	699.133
0.415262 	690.567
0.41766 	682.148
0.420058 	673.873
0.422456 	665.738
0.424854 	657.741
0.427252 	649.878
0.42965 	642.146
0.432048 	634.543
0.434446 	627.065
0.436844 	619.711
0.439242 	612.476
0.44164 	605.358
0.444038 	598.356
0.446436 	591.466
0.448834 	584.687
0.451232 	578.015
0.45363 	571.449
0.456028 	564.986
0.458426 	558.624
0.460824 	552.361
0.463222 	546.195
0.46562 	540.125
0.468018 	534.147
0.470416 	528.261
0.472814 	522.463
0.475212 	516.754
0.47761 	511.13
0.480008 	505.59
0.482406 	500.133
0.484804 	494.756
0.487202 	489.459
0.4896 	484.239
0.491998 	479.096
0.494396 	474.027
0.496794 	469.031
0.499192 	464.107
0.50159 	459.254
0.503988 	454.47
0.506386 	449.753
0.508784 	445.103
0.511182 	440.519
0.51358 	435.998
0.515978 	431.54
0.518376 	427.144
0.520774 	422.809
0.523172 	418.533
0.52557 	414.315
0.527968 	410.155
0.530366 	406.051
0.532764 	402.003
0.535162 	398.008
0.53756 	394.067
0.539958 	390.179
0.542356 	386.342
0.544754 	382.555
0.547152 	378.818
0.54955 	375.13
0.551948 	371.49
0.554346 	367.897
0.556744 	364.351
0.559142 	360.85
0.56154 	357.393
0.563938 	353.981
0.566336 	350.612
0.568734 	347.285
0.571132 	344.001
0.57353 	340.757
0.575928 	337.554
0.578326 	334.39
0.580724 	331.266
0.583122 	328.18
0.58552 	325.132
0.587918 	322.121
0.590316 	319.147
0.592714 	316.209
0.595112 	313.307
0.59751 	310.439
0.599908 	307.605
0.602306 	304.806
0.604704 	302.039
0.607102 	299.305
0.6095 	296.604
0.611898 	293.934
0.614296 	291.295
0.616694 	288.687
0.619092 	286.11
0.62149 	283.562
0.623888 	281.043
0.626286 	278.554
0.628684 	276.092
0.631082 	273.659
0.63348 	271.253
0.635878 	268.875
0.638276 	266.523
0.640674 	264.198
0.643072 	261.899
0.64547 	259.625
0.647868 	257.376
0.650266 	255.152
0.652664 	252.953
0.655062 	250.778
0.65746 	248.626
0.659858 	246.498
0.662256 	244.393
0.664654 	242.311
0.667052 	240.251
0.66945 	238.214
0.671848 	236.198
0.674246 	234.203
0.676644 	232.23
0.679042 	230.278
0.68144 	228.346
0.683838 	226.434
0.686236 	224.543
0.688634 	222.671
0.691032 	220.819
0.69343 	218.986
0.695828 	217.171
0.698226 	215.376
0.700624 	213.599
0.703022 	211.84
0.70542 	210.099
0.707818 	208.375
0.710216 	206.669
0.712614 	204.98
0.715012 	203.309
0.71741 	201.653
0.719808 	200.015
0.722206 	198.393
0.724604 	196.786
0.727002 	195.196
0.7294 	193.621
0.731798 	192.062
0.734196 	190.518
0.736594 	188.989
0.738992 	187.475
0.74139 	185.976
0.743788 	184.491
0.746186 	183.021
0.748584 	181.564
0.750982 	180.122
0.75338 	178.693
0.755778 	177.278
0.758176 	175.876
0.760574 	174.487
0.762972 	173.112
0.76537 	171.749
0.767768 	170.399
0.770166 	169.062
0.772564 	167.737
0.774962 	166.425
0.77736 	165.125
0.779758 	163.836
0.782156 	162.56
0.784554 	161.295
0.786952 	160.041
0.78935 	158.799
0.791748 	157.569
0.794146 	156.349
0.796544 	155.141
0.798942 	153.943
0.80134 	152.756
0.803738 	151.58
0.806136 	150.414
0.808534 	149.259
0.810932 	148.114
0.81333 	146.979
0.815728 	145.853
0.818126 	144.738
0.820524 	143.633
0.822922 	142.537
0.82532 	141.451
0.827718 	140.374
0.830116 	139.307
0.832514 	138.248
0.834912 	137.199
0.83731 	136.159
0.839708 	135.128
0.842106 	134.105
0.844504 	133.092
0.846902 	132.086
0.8493 	131.09
0.851698 	130.101
0.854096 	129.122
0.856494 	128.15
0.858892 	127.186
0.86129 	126.231
0.863688 	125.283
0.866086 	124.344
0.868484 	123.412
0.870882 	122.487
0.87328 	121.571
0.875678 	120.662
0.878076 	119.76
0.880474 	118.866
0.882872 	117.979
0.88527 	117.099
0.887668 	116.226
0.890066 	115.36
0.892464 	114.502
0.894862 	113.65
0.89726 	112.805
0.899658 	111.967
0.902056 	111.135
0.904454 	110.31
0.906852 	109.492
0.90925 	108.68
0.911648 	107.875
0.914046 	107.075
0.916444 	106.283
0.918842 	105.496
0.92124 	104.715
0.923638 	103.941
0.926036 	103.172
0.928434 	102.41
0.930832 	101.653
0.93323 	100.903
0.935628 	100.157
0.938026 	99.4182
0.940424 	98.6845
0.942822 	97.9565
0.94522 	97.2339
0.947618 	96.5169
0.950016 	95.8053
0.952414 	95.099
0.954812 	94.3981
0.95721 	93.7025
0.959608 	93.012
0.962006 	92.3267
0.964404 	91.6466
0.966802 	90.9715
0.9692 	90.3013
0.971598 	89.6362
0.973996 	88.976
0.976394 	88.3206
0.978792 	87.6701
0.98119 	87.0243
0.983588 	86.3832
0.985986 	85.7468
0.988384 	85.1151
0.990782 	84.4879
0.99318 	83.8653
0.995578 	83.2472
0.997976 	82.6335
1.00037 	82.0242
1.00277 	81.4194
1.00517 	80.8188
1.00757 	80.2225
1.00997 	79.6305
1.01236 	79.0427
1.01476 	78.459
1.01716 	77.8795
1.01956 	77.3041
1.02196 	76.7327
1.02435 	76.1653
1.02675 	75.602
1.02915 	75.0425
1.03155 	74.487
1.03395 	73.9353
1.03634 	73.3874
1.03874 	72.8434
1.04114 	72.3031
1.04354 	71.7665
1.04594 	71.2336
1.04833 	70.7044
1.05073 	70.1788
1.05313 	69.6568
1.05553 	69.1383
1.05793 	68.6234
1.06032 	68.112
1.06272 	67.604
1.06512 	67.0995
1.06752 	66.5984
1.06992 	66.1006
1.07231 	65.6062
1.07471 	65.1151
1.07711 	64.6273
1.07951 	64.1427
1.08191 	63.6614
1.0843 	63.1832
1.0867 	62.7083
1.0891 	62.2364
1.0915 	61.7677
1.0939 	61.3021
1.09629 	60.8395
1.09869 	60.3799
1.10109 	59.9234
1.10349 	59.4698
1.10589 	59.0192
1.10828 	58.5715
1.11068 	58.1267
1.11308 	57.6848
1.11548 	57.2458
1.11788 	56.8095
1.12027 	56.3761
1.12267 	55.9455
1.12507 	55.5176
1.12747 	55.0924
1.12987 	54.67
1.13226 	54.2503
1.13466 	53.8332
1.13706 	53.4187
1.13946 	53.0069
1.14186 	52.5977
1.14425 	52.191
1.14665 	51.7869
1.14905 	51.3854
1.15145 	50.9863
1.15385 	50.5898
1.15624 	50.1957
1.15864 	49.804
1.16104 	49.4148
1.16344 	49.0281
1.16584 	48.6436
1.16823 	48.2616
1.17063 	47.8819
1.17303 	47.5046
1.17543 	47.1296
1.17783 	46.7568
1.18022 	46.3864
1.18262 	46.0182
1.18502 	45.6522
1.18742 	45.2885
1.18982 	44.9269
1.19221 	44.5676
1.19461 	44.2104
1.19701 	43.8554
1.19941 	43.5025
1.20181 	43.1517
1.2042 	42.803
1.2066 	42.4564
1.209 	42.1119
1.2114 	41.7694
1.2138 	41.429
1.21619 	41.0906
1.21859 	40.7541
1.22099 	40.4197
1.22339 	40.0873
1.22579 	39.7568
1.22818 	39.4282
1.23058 	39.1016
1.23298 	38.7768
1.23538 	38.454
1.23778 	38.1331
1.24017 	37.814
1.24257 	37.4968
1.24497 	37.1814
1.24737 	36.8678
1.24977 	36.5561
1.25216 	36.2461
1.25456 	35.938
1.25696 	35.6316
1.25936 	35.3269
1.26176 	35.024
1.26415 	34.7228
1.26655 	34.4234
1.26895 	34.1256
1.27135 	33.8296
1.27375 	33.5352
1.27614 	33.2425
1.27854 	32.9514
1.28094 	32.662
1.28334 	32.3742
1.28574 	32.0881
1.28813 	31.8035
1.29053 	31.5205
1.29293 	31.2391
1.29533 	30.9593
1.29773 	30.681
1.30012 	30.4043
1.30252 	30.1291
1.30492 	29.8555
1.30732 	29.5833
1.30972 	29.3127
1.31211 	29.0435
1.31451 	28.7758
1.31691 	28.5096
1.31931 	28.2449
1.32171 	27.9816
1.3241 	27.7197
1.3265 	27.4593
1.3289 	27.2003
1.3313 	26.9427
1.3337 	26.6865
1.33609 	26.4317
1.33849 	26.1782
1.34089 	25.9261
1.34329 	25.6754
1.34569 	25.426
1.34808 	25.178
1.35048 	24.9313
1.35288 	24.6859
1.35528 	24.4418
1.35768 	24.1991
1.36007 	23.9576
1.36247 	23.7174
1.36487 	23.4785
1.36727 	23.2408
1.36967 	23.0044
1.37206 	22.7692
1.37446 	22.5353
1.37686 	22.3026
1.37926 	22.0712
1.38166 	21.8409
1.38405 	21.6119
1.38645 	21.384
1.38885 	21.1574
1.39125 	20.9319
1.39365 	20.7076
1.39604 	20.4845
1.39844 	20.2625
1.40084 	20.0416
1.40324 	19.8219
1.40564 	19.6034
1.40803 	19.3859
1.41043 	19.1696
1.41283 	18.9544
1.41523 	18.7403
1.41763 	18.5273
1.42002 	18.3154
1.42242 	18.1045
1.42482 	17.8948
1.42722 	17.6861
1.42962 	17.4784
1.43201 	17.2719
1.43441 	17.0663
1.43681 	16.8618
1.43921 	16.6583
1.44161 	16.4559
1.444 	16.2545
1.4464 	16.0541
1.4488 	15.8546
1.4512 	15.6562
1.4536 	15.4588
1.45599 	15.2624
1.45839 	15.0669
1.46079 	14.8724
1.46319 	14.6789
1.46559 	14.4863
1.46798 	14.2947
1.47038 	14.1041
1.47278 	13.9144
1.47518 	13.7256
1.47758 	13.5377
1.47997 	13.3508
1.48237 	13.1648
1.48477 	12.9797
1.48717 	12.7955
1.48957 	12.6122
1.49196 	12.4298
1.49436 	12.2483
1.49676 	12.0677
1.49916 	11.8879
1.50156 	11.7091
1.50395 	11.531
1.50635 	11.3539
1.50875 	11.1776
1.51115 	11.0022
1.51355 	10.8276
1.51594 	10.6538
1.51834 	10.4809
1.52074 	10.3088
1.52314 	10.1375
1.52554 	9.96705
1.52793 	9.79741
1.53033 	9.62858
1.53273 	9.46056
1.53513 	9.29333
1.53753 	9.12689
1.53992 	8.96125
1.54232 	8.79639
1.54472 	8.63231
1.54712 	8.469
1.54952 	8.30646
1.55191 	8.14469
1.55431 	7.98368
1.55671 	7.82342
1.55911 	7.66392
1.56151 	7.50516
1.5639 	7.34715
1.5663 	7.18987
1.5687 	7.03332
1.5711 	6.87751
1.5735 	6.72242
1.57589 	6.56805
1.57829 	6.4144
1.58069 	6.26145
1.58309 	6.10922
1.58549 	5.95769
1.58788 	5.80685
1.59028 	5.65671
1.59268 	5.50727
1.59508 	5.35851
1.59748 	5.21043
1.59987 	5.06303
1.60227 	4.9163
1.60467 	4.77025
1.60707 	4.62486
1.60947 	4.48014
1.61186 	4.33607
1.61426 	4.19266
1.61666 	4.0499
1.61906 	3.90779
1.62146 	3.76632
1.62385 	3.62549
1.62625 	3.4853
1.62865 	3.34574
1.63105 	3.20681
1.63345 	3.0685
1.63584 	2.93082
1.63824 	2.79376
1.64064 	2.65731
1.64304 	2.52147
1.64544 	2.38623
1.64783 	2.25161
1.65023 	2.11758
1.65263 	1.98415
1.65503 	1.85131
1.65743 	1.71907
1.65982 	1.58741
1.66222 	1.45634
1.66462 	1.32584
1.66702 	1.19593
1.66942 	1.06659
1.67181 	0.937815
1.67421 	0.809612
1.67661 	0.681973
1.67901 	0.554896
1.68141 	0.428377
1.6838 	0.302413
1.6862 	0.177001
1.6886 	0.052138
1.691 	-0.072179
1.6934 	-0.195953
1.69579 	-0.319187
1.69819 	-0.441884
1.70059 	-0.564047
1.70299 	-0.685679
1.70539 	-0.806783
1.70778 	-0.927361
1.71018 	-1.04742
1.71258 	-1.16695
1.71498 	-1.28597
1.71738 	-1.40448
1.71977 	-1.52247
1.72217 	-1.63996
1.72457 	-1.75694
1.72697 	-1.87342
1.72937 	-1.9894
1.73176 	-2.10488
1.73416 	-2.21986
1.73656 	-2.33435
1.73896 	-2.44836
1.74136 	-2.56187
1.74375 	-2.67491
1.74615 	-2.78746
1.74855 	-2.89953
1.75095 	-3.01112
1.75335 	-3.12224
1.75574 	-3.23289
1.75814 	-3.34307
1.76054 	-3.45278
1.76294 	-3.56203
1.76534 	-3.67082
1.76773 	-3.77915
1.77013 	-3.88702
1.77253 	-3.99443
1.77493 	-4.1014
1.77733 	-4.20791
1.77972 	-4.31398
1.78212 	-4.4196
1.78452 	-4.52478
1.78692 	-4.62952
1.78932 	-4.73382
1.79171 	-4.83768
1.79411 	-4.94111
1.79651 	-5.04411
1.79891 	-5.14668
1.80131 	-5.24882
1.8037 	-5.35054
1.8061 	-5.45184
1.8085 	-5.55271
1.8109 	-5.65317
1.8133 	-5.75321
1.81569 	-5.85283
1.81809 	-5.95205
1.82049 	-6.05085
1.82289 	-6.14925
1.82529 	-6.24723
1.82768 	-6.34482
1.83008 	-6.442
1.83248 	-6.53879
1.83488 	-6.63517
1.83728 	-6.73117
1.83967 	-6.82676
1.84207 	-6.92197
1.84447 	-7.01678
1.84687 	-7.11121
1.84927 	-7.20525
1.85166 	-7.29891
1.85406 	-7.39218
1.85646 	-7.48508
1.85886 	-7.57759
1.86126 	-7.66973
1.86365 	-7.76149
1.86605 	-7.85289
1.86845 	-7.94391
1.87085 	-8.03456
1.87325 	-8.12484
1.87564 	-8.21476
1.87804 	-8.30431
1.88044 	-8.3935
1.88284 	-8.48233
1.88524 	-8.57081
1.88763 	-8.65892
1.89003 	-8.74668
1.89243 	-8.83409
1.89483 	-8.92114
1.89723 	-9.00785
1.89962 	-9.09421
1.90202 	-9.18022
1.90442 	-9.26588
1.90682 	-9.3512
1.90922 	-9.43618
1.91161 	-9.52082
1.91401 	-9.60512
1.91641 	-9.68908
1.91881 	-9.77271
1.92121 	-9.856
1.9236 	-9.93897
1.926 	-10.0216
1.9284 	-10.1039
1.9308 	-10.1859
1.9332 	-10.2675
1.93559 	-10.3488
1.93799 	-10.4298
1.94039 	-10.5105
1.94279 	-10.5909
1.94519 	-10.6709
1.94758 	-10.7506
1.94998 	-10.83
1.95238 	-10.9091
1.95478 	-10.9879
1.95718 	-11.0664
1.95957 	-11.1445
1.96197 	-11.2224
1.96437 	-11.2999
1.96677 	-11.3772
1.96917 	-11.4541
1.97156 	-11.5307
1.97396 	-11.6071
1.97636 	-11.6831
1.97876 	-11.7588
1.98116 	-11.8343
1.98355 	-11.9094
1.98595 	-11.9842
1.98835 	-12.0588
1.99075 	-12.133
1.99315 	-12.207
1.99554 	-12.2807
1.99794 	-12.3541
2.00034 	-12.4272
2.00274 	-12.5
2.00514 	-12.5725
2.00753 	-12.6448
2.00993 	-12.7167
2.01233 	-12.7884
2.01473 	-12.8598
2.01713 	-12.9309
2.01952 	-13.0018
2.02192 	-13.0723
2.02432 	-13.1426
2.02672 	-13.2127
2.02912 	-13.2824
2.03151 	-13.3519
2.03391 	-13.4211
2.03631 	-13.4901
2.03871 	-13.5587
2.04111 	-13.6271
2.0435 	-13.6953
2.0459 	-13.7632
2.0483 	-13.8308
2.0507 	-13.8981
2.0531 	-13.9652
2.05549 	-14.0321
2.05789 	-14.0986
2.06029 	-14.1649
2.06269 	-14.231
2.06509 	-14.2968
2.06748 	-14.3624
2.06988 	-14.4277
2.07228 	-14.4927
2.07468 	-14.5575
2.07708 	-14.622
2.07947 	-14.6863
2.08187 	-14.7504
2.08427 	-14.8142
2.08667 	-14.8777
2.08907 	-14.941
2.09146 	-15.0041
2.09386 	-15.0669
2.09626 	-15.1295
2.09866 	-15.1919
2.10106 	-15.254
2.10345 	-15.3158
2.10585 	-15.3774
2.10825 	-15.4388
2.11065 	-15.5
2.11305 	-15.5609
2.11544 	-15.6216
2.11784 	-15.682
2.12024 	-15.7422
2.12264 	-15.8022
2.12504 	-15.862
2.12743 	-15.9215
2.12983 	-15.9808
2.13223 	-16.0399
2.13463 	-16.0987
2.13703 	-16.1573
2.13942 	-16.2157
2.14182 	-16.2739
2.14422 	-16.3318
2.14662 	-16.3895
2.14902 	-16.447
2.15141 	-16.5043
2.15381 	-16.5614
2.15621 	-16.6182
2.15861 	-16.6749
2.16101 	-16.7313
2.1634 	-16.7874
2.1658 	-16.8434
2.1682 	-16.8992
2.1706 	-16.9547
2.173 	-17.0101
2.17539 	-17.0652
2.17779 	-17.1201
2.18019 	-17.1748
2.18259 	-17.2293
2.18499 	-17.2836
2.18738 	-17.3376
2.18978 	-17.3915
2.19218 	-17.4452
2.19458 	-17.4986
2.19698 	-17.5519
2.19937 	-17.6049
2.20177 	-17.6578
2.20417 	-17.7104
2.20657 	-17.7628
2.20897 	-17.8151
2.21136 	-17.8671
2.21376 	-17.9189
2.21616 	-17.9706
2.21856 	-18.022
2.22096 	-18.0732
2.22335 	-18.1243
2.22575 	-18.1751
2.22815 	-18.2258
2.23055 	-18.2762
2.23295 	-18.3265
2.23534 	-18.3766
2.23774 	-18.4265
2.24014 	-18.4761
2.24254 	-18.5256
2.24494 	-18.5749
2.24733 	-18.6241
2.24973 	-18.673
2.25213 	-18.7217
2.25453 	-18.7703
2.25693 	-18.8186
2.25932 	-18.8668
2.26172 	-18.9148
2.26412 	-18.9626
2.26652 	-19.0102
2.26892 	-19.0577
2.27131 	-19.1049
2.27371 	-19.152
2.27611 	-19.1989
2.27851 	-19.2456
2.28091 	-19.2921
2.2833 	-19.3385
2.2857 	-19.3846
2.2881 	-19.4306
2.2905 	-19.4765
2.2929 	-19.5221
2.29529 	-19.5675
2.29769 	-19.6128
2.30009 	-19.6579
2.30249 	-19.7029
2.30489 	-19.7476
2.30728 	-19.7922
2.30968 	-19.8366
2.31208 	-19.8809
2.31448 	-19.9249
2.31688 	-19.9688
2.31927 	-20.0125
2.32167 	-20.0561
2.32407 	-20.0995
2.32647 	-20.1427
2.32887 	-20.1857
2.33126 	-20.2286
2.33366 	-20.2713
2.33606 	-20.3138
2.33846 	-20.3562
2.34086 	-20.3984
2.34325 	-20.4405
2.34565 	-20.4824
2.34805 	-20.5241
2.35045 	-20.5656
2.35285 	-20.607
2.35524 	-20.6482
2.35764 	-20.6893
2.36004 	-20.7302
2.36244 	-20.7709
2.36484 	-20.8115
2.36723 	-20.8519
2.36963 	-20.8922
2.37203 	-20.9323
2.37443 	-20.9722
2.37683 	-21.012
2.37922 	-21.0516
2.38162 	-21.0911
2.38402 	-21.1304
2.38642 	-21.1695
2.38882 	-21.2085
2.39121 	-21.2474
2.39361 	-21.2861
2.39601 	-21.3246
2.39841 	-21.363
2.40081 	-21.4012
2.4032 	-21.4393
2.4056 	-21.4772
2.408 	-21.515
2.4104 	-21.5526
2.4128 	-21.5901
2.41519 	-21.6274
2.41759 	-21.6645
2.41999 	-21.7015
2.42239 	-21.7384
2.42479 	-21.7751
2.42718 	-21.8117
2.42958 	-21.8481
2.43198 	-21.8844
2.43438 	-21.9205
2.43678 	-21.9565
2.43917 	-21.9923
2.44157 	-22.028
2.44397 	-22.0635
2.44637 	-22.0989
2.44877 	-22.1342
2.45116 	-22.1693
2.45356 	-22.2043
2.45596 	-22.2391
2.45836 	-22.2738
2.46076 	-22.3083
2.46315 	-22.3427
2.46555 	-22.3769
2.46795 	-22.411
2.47035 	-22.445
2.47275 	-22.4788
2.47514 	-22.5125
2.47754 	-22.5461
2.47994 	-22.5795
2.48234 	-22.6127
2.48474 	-22.6459
2.48713 	-22.6789
2.48953 	-22.7117
2.49193 	-22.7444
2.49433 	-22.777
2.49673 	-22.8094
2.49912 	-22.8417
2.50152 	-22.8739
2.50392 	-22.9059
2.50632 	-22.9378
2.50872 	-22.9696
2.51111 	-23.0012
2.51351 	-23.0327
2.51591 	-23.0641
2.51831 	-23.0953
2.52071 	-23.1264
2.5231 	-23.1574
2.5255 	-23.1882
2.5279 	-23.2189
2.5303 	-23.2494
2.5327 	-23.2799
2.53509 	-23.3102
2.53749 	-23.3403
2.53989 	-23.3704
2.54229 	-23.4003
2.54469 	-23.4301
2.54708 	-23.4597
2.54948 	-23.4892
2.55188 	-23.5186
2.55428 	-23.5479
2.55668 	-23.577
2.55907 	-23.606
2.56147 	-23.6349
2.56387 	-23.6637
2.56627 	-23.6923
2.56867 	-23.7208
2.57106 	-23.7491
2.57346 	-23.7774
2.57586 	-23.8055
2.57826 	-23.8335
2.58066 	-23.8614
2.58305 	-23.8891
2.58545 	-23.9167
2.58785 	-23.9442
2.59025 	-23.9716
2.59265 	-23.9988
2.59504 	-24.026
2.59744 	-24.053
2.59984 	-24.0798
2.60224 	-24.1066
2.60464 	-24.1332
2.60703 	-24.1597
2.60943 	-24.1861
2.61183 	-24.2124
2.61423 	-24.2385
2.61663 	-24.2645
2.61902 	-24.2904
2.62142 	-24.3162
2.62382 	-24.3419
2.62622 	-24.3674
2.62862 	-24.3928
2.63101 	-24.4181
2.63341 	-24.4433
2.63581 	-24.4684
2.63821 	-24.4933
2.64061 	-24.5182
2.643 	-24.5429
2.6454 	-24.5675
2.6478 	-24.5919
2.6502 	-24.6163
2.6526 	-24.6405
2.65499 	-24.6647
2.65739 	-24.6887
2.65979 	-24.7125
2.66219 	-24.7363
2.66459 	-24.76
2.66698 	-24.7835
2.66938 	-24.8069
2.67178 	-24.8303
2.67418 	-24.8535
2.67658 	-24.8765
2.67897 	-24.8995
2.68137 	-24.9223
2.68377 	-24.9451
2.68617 	-24.9677
2.68857 	-24.9902
2.69096 	-25.0126
2.69336 	-25.0349
2.69576 	-25.0571
2.69816 	-25.0791
2.70056 	-25.1011
2.70295 	-25.1229
2.70535 	-25.1446
2.70775 	-25.1662
2.71015 	-25.1877
2.71255 	-25.2091
2.71494 	-25.2304
