# Mass = 0.0473265 Mev*(hbarc)^2/2 
# R = 4.82059 fm 
# a = 0.662 fm 
# V0 = 56.2183 MeV 
# RSO = 4.438 fm 
# aSO = 0.662 fm 
# VSO = 28.772 MeV fm^2
# Rc = 4.82059 fm
# Zc = 25
# n = 0 
# l = 1 
# two_j = 1 
# two_t = 1 
# Energy = -25.6405 MeV
# r          u            Phi          u/r          
0.01         1.81298e-05  9.54253e-05  0.00181298   
0.012398     2.78673e-05  0.000118307  0.00224772   
0.014796     3.96898e-05  0.000141189  0.00268247   
0.017194     5.35971e-05  0.000164069  0.0031172    
0.019592     6.95893e-05  0.000186949  0.00355192   
0.02199      8.76662e-05  0.000209827  0.00398664   
0.024388     0.000107828  0.000232705  0.00442134   
0.026786     0.000130074  0.000255581  0.00485603   
0.029184     0.000154404  0.000278455  0.00529071   
0.031582     0.000180819  0.000301328  0.00572537   
0.03398      0.000209317  0.000324199  0.00616002   
0.036378     0.0002399    0.000347069  0.00659464   
0.038776     0.000272566  0.000369936  0.00702925   
0.041174     0.000307316  0.0003928    0.00746384   
0.043572     0.000344149  0.000415663  0.0078984    
0.04597      0.000383065  0.000438523  0.00833294   
0.048368     0.000424064  0.00046138   0.00876746   
0.050766     0.000467146  0.000484235  0.00920195   
0.053164     0.00051231   0.000507086  0.00963641   
0.055562     0.000559556  0.000529935  0.0100708    
0.05796      0.000608884  0.00055278   0.0105052    
0.060358     0.000660293  0.000575622  0.0109396    
0.062756     0.000713784  0.00059846   0.011374     
0.065154     0.000769355  0.000621295  0.0118083    
0.067552     0.000827007  0.000644126  0.0122425    
0.06995      0.000886739  0.000666953  0.0126768    
0.072348     0.00094855   0.000689776  0.0131109    
0.074746     0.00101244   0.000712594  0.0135451    
0.077144     0.00107841   0.000735409  0.0139792    
0.079542     0.00114646   0.000758218  0.0144133    
0.08194      0.00121659   0.000781023  0.0148473    
0.084338     0.00128879   0.000803824  0.0152813    
0.086736     0.00136307   0.000826619  0.0157152    
0.089134     0.00143943   0.000849409  0.0161491    
0.091532     0.00151787   0.000872194  0.0165829    
0.09393      0.00159838   0.000894974  0.0170167    
0.096328     0.00168097   0.000917748  0.0174504    
0.098726     0.00176563   0.000940516  0.0178841    
0.101124     0.00185236   0.000963278  0.0183177    
0.103522     0.00194117   0.000986035  0.0187513    
0.10592      0.00203206   0.00100879   0.0191848    
0.108318     0.00212501   0.00103153   0.0196183    
0.110716     0.00222004   0.00105427   0.0200516    
0.113114     0.00231714   0.001077     0.020485     
0.115512     0.00241631   0.00109972   0.0209182    
0.11791      0.00251755   0.00112244   0.0213514    
0.120308     0.00262086   0.00114515   0.0217846    
0.122706     0.00272624   0.00116786   0.0222176    
0.125104     0.00283369   0.00119055   0.0226506    
0.127502     0.0029432    0.00121324   0.0230836    
0.1299       0.00305478   0.00123592   0.0235164    
0.132298     0.00316843   0.0012586    0.0239492    
0.134696     0.00328415   0.00128126   0.0243819    
0.137094     0.00340193   0.00130392   0.0248146    
0.139492     0.00352177   0.00132657   0.0252471    
0.14189      0.00364368   0.00134921   0.0256796    
0.144288     0.00376765   0.00137185   0.026112     
0.146686     0.00389368   0.00139447   0.0265443    
0.149084     0.00402177   0.00141709   0.0269766    
0.151482     0.00415193   0.0014397    0.0274087    
0.15388      0.00428414   0.00146229   0.0278408    
0.156278     0.00441841   0.00148488   0.0282728    
0.158676     0.00455474   0.00150746   0.0287047    
0.161074     0.00469313   0.00153004   0.0291365    
0.163472     0.00483357   0.0015526    0.0295682    
0.16587      0.00497607   0.00157515   0.0299998    
0.168268     0.00512062   0.00159769   0.0304313    
0.170666     0.00526723   0.00162022   0.0308628    
0.173064     0.00541589   0.00164274   0.0312941    
0.175462     0.0055666    0.00166526   0.0317254    
0.17786      0.00571936   0.00168776   0.0321565    
0.180258     0.00587417   0.00171025   0.0325876    
0.182656     0.00603103   0.00173273   0.0330185    
0.185054     0.00618994   0.0017552    0.0334493    
0.187452     0.00635089   0.00177765   0.0338801    
0.18985      0.00651389   0.0018001    0.0343107    
0.192248     0.00667894   0.00182254   0.0347412    
0.194646     0.00684602   0.00184496   0.0351717    
0.197044     0.00701516   0.00186738   0.035602     
0.199442     0.00718633   0.00188978   0.0360322    
0.20184      0.00735954   0.00191217   0.0364623    
0.204238     0.0075348    0.00193454   0.0368922    
0.206636     0.00771209   0.00195691   0.0373221    
0.209034     0.00789142   0.00197926   0.0377519    
0.211432     0.00807279   0.00200161   0.0381815    
0.21383      0.00825619   0.00202393   0.038611     
0.216228     0.00844162   0.00204625   0.0390404    
0.218626     0.00862909   0.00206855   0.0394696    
0.221024     0.00881859   0.00209084   0.0398988    
0.223422     0.00901012   0.00211312   0.0403278    
0.22582      0.00920368   0.00213538   0.0407567    
0.228218     0.00939927   0.00215764   0.0411855    
0.230616     0.00959688   0.00217987   0.0416141    
0.233014     0.00979652   0.0022021    0.0420426    
0.235412     0.00999819   0.00222431   0.042471     
0.23781      0.0102019    0.0022465    0.0428993    
0.240208     0.0104076    0.00226868   0.0433274    
0.242606     0.0106153    0.00229085   0.0437554    
0.245004     0.0108251    0.00231301   0.0441832    
0.247402     0.0110368    0.00233515   0.0446109    
0.2498       0.0112506    0.00235727   0.0450385    
0.252198     0.0114664    0.00237938   0.0454659    
0.254596     0.0116842    0.00240147   0.0458932    
0.256994     0.011904     0.00242355   0.0463203    
0.259392     0.0121259    0.00244562   0.0467473    
0.26179      0.0123497    0.00246767   0.0471742    
0.264188     0.0125756    0.0024897    0.0476009    
0.266586     0.0128034    0.00251172   0.0480275    
0.268984     0.0130333    0.00253372   0.0484539    
0.271382     0.0132652    0.00255571   0.0488801    
0.27378      0.0134991    0.00257768   0.0493062    
0.276178     0.0137349    0.00259964   0.0497322    
0.278576     0.0139728    0.00262158   0.050158     
0.280974     0.0142127    0.0026435    0.0505836    
0.283372     0.0144546    0.0026654    0.0510091    
0.28577      0.0146984    0.00268729   0.0514345    
0.288168     0.0149443    0.00270917   0.0518596    
0.290566     0.0151921    0.00273102   0.0522846    
0.292964     0.015442     0.00275286   0.0527095    
0.295362     0.0156938    0.00277468   0.0531341    
0.29776      0.0159476    0.00279648   0.0535587    
0.300158     0.0162034    0.00281827   0.053983     
0.302556     0.0164612    0.00284004   0.0544072    
0.304954     0.016721     0.00286179   0.0548312    
0.307352     0.0169827    0.00288352   0.055255     
0.30975      0.0172465    0.00290524   0.0556787    
0.312148     0.0175122    0.00292693   0.0561022    
0.314546     0.0177799    0.00294861   0.0565255    
0.316944     0.0180495    0.00297027   0.0569487    
0.319342     0.0183212    0.00299191   0.0573716    
0.32174      0.0185948    0.00301353   0.0577944    
0.324138     0.0188703    0.00303514   0.058217     
0.326536     0.0191479    0.00305672   0.0586394    
0.328934     0.0194274    0.00307829   0.0590617    
0.331332     0.0197089    0.00309983   0.0594837    
0.33373      0.0199923    0.00312136   0.0599056    
0.336128     0.0202777    0.00314287   0.0603273    
0.338526     0.020565     0.00316436   0.0607488    
0.340924     0.0208544    0.00318582   0.0611701    
0.343322     0.0211456    0.00320727   0.0615912    
0.34572      0.0214388    0.0032287    0.0620122    
0.348118     0.021734     0.00325011   0.0624329    
0.350516     0.0220311    0.00327149   0.0628534    
0.352914     0.0223302    0.00329286   0.0632738    
0.355312     0.0226312    0.00331421   0.0636939    
0.35771      0.0229342    0.00333553   0.0641139    
0.360108     0.0232391    0.00335684   0.0645336    
0.362506     0.0235459    0.00337812   0.0649532    
0.364904     0.0238547    0.00339938   0.0653725    
0.367302     0.0241654    0.00342062   0.0657917    
0.3697       0.0244781    0.00344184   0.0662106    
0.372098     0.0247926    0.00346304   0.0666293    
0.374496     0.0251092    0.00348422   0.0670479    
0.376894     0.0254276    0.00350537   0.0674662    
0.379292     0.025748     0.0035265    0.0678843    
0.38169      0.0260703    0.00354761   0.0683022    
0.384088     0.0263945    0.0035687    0.0687199    
0.386486     0.0267206    0.00358977   0.0691373    
0.388884     0.0270487    0.00361081   0.0695546    
0.391282     0.0273786    0.00363183   0.0699716    
0.39368      0.0277105    0.00365283   0.0703884    
0.396078     0.0280443    0.0036738    0.070805     
0.398476     0.02838      0.00369475   0.0712214    
0.400874     0.0287176    0.00371568   0.0716376    
0.403272     0.0290572    0.00373659   0.0720535    
0.40567      0.0293986    0.00375747   0.0724692    
0.408068     0.0297419    0.00377833   0.0728847    
0.410466     0.0300871    0.00379916   0.0732999    
0.412864     0.0304343    0.00381997   0.073715     
0.415262     0.0307833    0.00384076   0.0741298    
0.41766      0.0311342    0.00386152   0.0745443    
0.420058     0.031487     0.00388226   0.0749587    
0.422456     0.0318417    0.00390298   0.0753728    
0.424854     0.0321983    0.00392367   0.0757866    
0.427252     0.0325567    0.00394433   0.0762003    
0.42965      0.0329171    0.00396497   0.0766137    
0.432048     0.0332793    0.00398559   0.0770268    
0.434446     0.0336434    0.00400618   0.0774397    
0.436844     0.0340094    0.00402674   0.0778524    
0.439242     0.0343772    0.00404728   0.0782648    
0.44164      0.0347469    0.0040678    0.078677     
0.444038     0.0351185    0.00408829   0.079089     
0.446436     0.035492     0.00410875   0.0795007    
0.448834     0.0358673    0.00412919   0.0799121    
0.451232     0.0362445    0.0041496    0.0803233    
0.45363      0.0366235    0.00416998   0.0807343    
0.456028     0.0370044    0.00419034   0.081145     
0.458426     0.0373871    0.00421068   0.0815554    
0.460824     0.0377717    0.00423098   0.0819656    
0.463222     0.0381582    0.00425126   0.0823756    
0.46562      0.0385465    0.00427152   0.0827852    
0.468018     0.0389366    0.00429174   0.0831947    
0.470416     0.0393286    0.00431194   0.0836038    
0.472814     0.0397224    0.00433211   0.0840127    
0.475212     0.0401181    0.00435226   0.0844214    
0.47761      0.0405155    0.00437238   0.0848298    
0.480008     0.0409149    0.00439247   0.0852379    
0.482406     0.041316     0.00441253   0.0856457    
0.484804     0.041719     0.00443257   0.0860533    
0.487202     0.0421238    0.00445257   0.0864606    
0.4896       0.0425304    0.00447255   0.0868677    
0.491998     0.0429389    0.0044925    0.0872745    
0.494396     0.0433491    0.00451243   0.087681     
0.496794     0.0437612    0.00453232   0.0880872    
0.499192     0.0441751    0.00455219   0.0884932    
0.50159      0.0445908    0.00457202   0.0888988    
0.503988     0.0450083    0.00459183   0.0893042    
0.506386     0.0454276    0.00461161   0.0897094    
0.508784     0.0458487    0.00463136   0.0901142    
0.511182     0.0462716    0.00465109   0.0905188    
0.51358      0.0466963    0.00467078   0.0909231    
0.515978     0.0471228    0.00469044   0.0913271    
0.518376     0.0475511    0.00471008   0.0917308    
0.520774     0.0479811    0.00472968   0.0921342    
0.523172     0.048413     0.00474925   0.0925374    
0.52557      0.0488466    0.0047688    0.0929403    
0.527968     0.049282     0.00478831   0.0933428    
0.530366     0.0497192    0.0048078    0.0937451    
0.532764     0.0501582    0.00482725   0.0941471    
0.535162     0.0505989    0.00484667   0.0945488    
0.53756      0.0510414    0.00486607   0.0949502    
0.539958     0.0514857    0.00488543   0.0953513    
0.542356     0.0519317    0.00490476   0.0957521    
0.544754     0.0523795    0.00492406   0.0961526    
0.547152     0.0528291    0.00494333   0.0965529    
0.54955      0.0532804    0.00496257   0.0969528    
0.551948     0.0537335    0.00498178   0.0973524    
0.554346     0.0541883    0.00500096   0.0977517    
0.556744     0.0546448    0.0050201    0.0981507    
0.559142     0.0551031    0.00503921   0.0985494    
0.56154      0.0555631    0.0050583    0.0989478    
0.563938     0.0560249    0.00507735   0.0993459    
0.566336     0.0564884    0.00509636   0.0997437    
0.568734     0.0569537    0.00511535   0.100141     
0.571132     0.0574206    0.0051343    0.100538     
0.57353      0.0578893    0.00515322   0.100935     
0.575928     0.0583597    0.00517211   0.101332     
0.578326     0.0588319    0.00519097   0.101728     
0.580724     0.0593057    0.00520979   0.102124     
0.583122     0.0597813    0.00522858   0.102519     
0.58552      0.0602586    0.00524734   0.102915     
0.587918     0.0607376    0.00526606   0.10331      
0.590316     0.0612183    0.00528476   0.103704     
0.592714     0.0617006    0.00530341   0.104099     
0.595112     0.0621847    0.00532204   0.104492     
0.59751      0.0626705    0.00534063   0.104886     
0.599908     0.063158     0.00535919   0.105279     
0.602306     0.0636472    0.00537771   0.105672     
0.604704     0.064138     0.0053962    0.106065     
0.607102     0.0646305    0.00541466   0.106457     
0.6095       0.0651248    0.00543308   0.106849     
0.611898     0.0656207    0.00545147   0.107241     
0.614296     0.0661182    0.00546982   0.107633     
0.616694     0.0666175    0.00548814   0.108024     
0.619092     0.0671184    0.00550642   0.108414     
0.62149      0.0676209    0.00552467   0.108805     
0.623888     0.0681252    0.00554289   0.109195     
0.626286     0.0686311    0.00556107   0.109584     
0.628684     0.0691386    0.00557921   0.109974     
0.631082     0.0696478    0.00559732   0.110363     
0.63348      0.0701586    0.00561539   0.110751     
0.635878     0.0706711    0.00563343   0.111139     
0.638276     0.0711853    0.00565144   0.111527     
0.640674     0.071701     0.0056694    0.111915     
0.643072     0.0722184    0.00568733   0.112302     
0.64547      0.0727375    0.00570523   0.112689     
0.647868     0.0732581    0.00572309   0.113076     
0.650266     0.0737804    0.00574091   0.113462     
0.652664     0.0743044    0.0057587    0.113848     
0.655062     0.0748299    0.00577645   0.114233     
0.65746      0.075357     0.00579417   0.114618     
0.659858     0.0758858    0.00581185   0.115003     
0.662256     0.0764162    0.00582949   0.115388     
0.664654     0.0769482    0.00584709   0.115772     
0.667052     0.0774817    0.00586466   0.116155     
0.66945      0.0780169    0.00588219   0.116539     
0.671848     0.0785537    0.00589968   0.116922     
0.674246     0.0790921    0.00591714   0.117304     
0.676644     0.079632     0.00593456   0.117687     
0.679042     0.0801736    0.00595194   0.118069     
0.68144      0.0807167    0.00596929   0.11845      
0.683838     0.0812614    0.00598659   0.118831     
0.686236     0.0818077    0.00600386   0.119212     
0.688634     0.0823555    0.00602109   0.119593     
0.691032     0.0829049    0.00603828   0.119973     
0.69343      0.0834559    0.00605544   0.120352     
0.695828     0.0840085    0.00607255   0.120732     
0.698226     0.0845626    0.00608963   0.121111     
0.700624     0.0851182    0.00610667   0.121489     
0.703022     0.0856754    0.00612367   0.121867     
0.70542      0.0862342    0.00614063   0.122245     
0.707818     0.0867945    0.00615756   0.122623     
0.710216     0.0873563    0.00617444   0.123        
0.712614     0.0879197    0.00619129   0.123376     
0.715012     0.0884846    0.00620809   0.123753     
0.71741      0.089051     0.00622486   0.124129     
0.719808     0.089619     0.00624159   0.124504     
0.722206     0.0901885    0.00625828   0.124879     
0.724604     0.0907595    0.00627492   0.125254     
0.727002     0.091332     0.00629153   0.125628     
0.7294       0.091906     0.0063081    0.126002     
0.731798     0.0924816    0.00632463   0.126376     
0.734196     0.0930586    0.00634112   0.126749     
0.736594     0.0936372    0.00635757   0.127122     
0.738992     0.0942172    0.00637398   0.127494     
0.74139      0.0947987    0.00639035   0.127866     
0.743788     0.0953818    0.00640668   0.128238     
0.746186     0.0959663    0.00642296   0.128609     
0.748584     0.0965523    0.00643921   0.12898      
0.750982     0.0971397    0.00645542   0.12935      
0.75338      0.0977287    0.00647158   0.12972      
0.755778     0.0983191    0.00648771   0.13009      
0.758176     0.098911     0.00650379   0.130459     
0.760574     0.0995043    0.00651983   0.130828     
0.762972     0.100099     0.00653583   0.131196     
0.76537      0.100695     0.00655179   0.131564     
0.767768     0.101293     0.00656771   0.131932     
0.770166     0.101892     0.00658359   0.132299     
0.772564     0.102493     0.00659942   0.132666     
0.774962     0.103095     0.00661522   0.133032     
0.77736      0.103698     0.00663097   0.133398     
0.779758     0.104303     0.00664668   0.133764     
0.782156     0.10491      0.00666234   0.134129     
0.784554     0.105517     0.00667797   0.134494     
0.786952     0.106127     0.00669355   0.134858     
0.78935      0.106737     0.00670909   0.135222     
0.791748     0.107349     0.00672459   0.135585     
0.794146     0.107963     0.00674005   0.135948     
0.796544     0.108578     0.00675546   0.136311     
0.798942     0.109194     0.00677083   0.136673     
0.80134      0.109812     0.00678615   0.137035     
0.803738     0.110431     0.00680144   0.137396     
0.806136     0.111051     0.00681668   0.137757     
0.808534     0.111673     0.00683188   0.138118     
0.810932     0.112296     0.00684703   0.138478     
0.81333      0.112921     0.00686214   0.138837     
0.815728     0.113547     0.00687721   0.139197     
0.818126     0.114174     0.00689223   0.139555     
0.820524     0.114803     0.00690721   0.139914     
0.822922     0.115433     0.00692215   0.140272     
0.82532      0.116064     0.00693704   0.140629     
0.827718     0.116697     0.00695189   0.140986     
0.830116     0.117331     0.00696669   0.141343     
0.832514     0.117966     0.00698145   0.141699     
0.834912     0.118603     0.00699617   0.142055     
0.83731      0.119241     0.00701084   0.14241      
0.839708     0.119881     0.00702547   0.142765     
0.842106     0.120522     0.00704005   0.143119     
0.844504     0.121164     0.00705459   0.143473     
0.846902     0.121807     0.00706908   0.143827     
0.8493       0.122452     0.00708353   0.14418      
0.851698     0.123098     0.00709793   0.144533     
0.854096     0.123746     0.00711229   0.144885     
0.856494     0.124394     0.0071266    0.145237     
0.858892     0.125044     0.00714087   0.145588     
0.86129      0.125696     0.00715509   0.145939     
0.863688     0.126348     0.00716927   0.146289     
0.866086     0.127002     0.0071834    0.146639     
0.868484     0.127657     0.00719749   0.146989     
0.870882     0.128314     0.00721153   0.147338     
0.87328      0.128972     0.00722552   0.147686     
0.875678     0.129631     0.00723947   0.148035     
0.878076     0.130291     0.00725337   0.148382     
0.880474     0.130952     0.00726723   0.148729     
0.882872     0.131615     0.00728104   0.149076     
0.88527      0.132279     0.0072948    0.149423     
0.887668     0.132945     0.00730852   0.149768     
0.890066     0.133611     0.00732219   0.150114     
0.892464     0.134279     0.00733582   0.150459     
0.894862     0.134948     0.0073494    0.150803     
0.89726      0.135618     0.00736293   0.151147     
