# Mass = 0.0479598 Mev*(hbarc)^2/2 
# R = 7.46549 fm 
# a = 0.662 fm 
# V0 = 59.5769 MeV 
# RSO = 6.87299 fm 
# aSO = 0.662 fm 
# VSO = 28.0171 MeV fm^2
# Rc = 7.46549 fm
# Zc = 81
# n = 0 
# l = 1 
# two_j = 3 
# two_t = 1 
# Energy = -30.631 MeV
# r          u            Phi          u/r          
0.01         5.57106e-06  1.74433e-06  0.000557106  
0.012398     8.56329e-06  2.16261e-06  0.0006907    
0.014796     1.21962e-05  2.58089e-06  0.000824292  
0.017194     1.64699e-05  2.99917e-06  0.000957884  
0.019592     2.13842e-05  3.41744e-06  0.00109148   
0.02199      2.69392e-05  3.8357e-06   0.00122507   
0.024388     3.31349e-05  4.25396e-06  0.00135865   
0.026786     3.99712e-05  4.67221e-06  0.00149224   
0.029184     4.74482e-05  5.09045e-06  0.00162583   
0.031582     5.55658e-05  5.50868e-06  0.00175941   
0.03398      6.4324e-05   5.9269e-06   0.001893     
0.036378     7.37228e-05  6.34511e-06  0.00202658   
0.038776     8.37622e-05  6.7633e-06   0.00216016   
0.041174     9.44422e-05  7.18149e-06  0.00229373   
0.043572     0.000105763  7.59966e-06  0.00242731   
0.04597      0.000117724  8.01782e-06  0.00256088   
0.048368     0.000130325  8.43596e-06  0.00269445   
0.050766     0.000143567  8.85409e-06  0.00282802   
0.053164     0.00015745   9.2722e-06   0.00296159   
0.055562     0.000171973  9.6903e-06   0.00309515   
0.05796      0.000187136  1.01084e-05  0.00322871   
0.060358     0.00020294   1.05264e-05  0.00336227   
0.062756     0.000219384  1.09445e-05  0.00349582   
0.065154     0.000236468  1.13625e-05  0.00362937   
0.067552     0.000254193  1.17805e-05  0.00376292   
0.06995      0.000272558  1.21985e-05  0.00389646   
0.072348     0.000291563  1.26164e-05  0.00403001   
0.074746     0.000311208  1.30343e-05  0.00416354   
0.077144     0.000331494  1.34523e-05  0.00429708   
0.079542     0.000352419  1.38701e-05  0.0044306    
0.08194      0.000373985  1.4288e-05   0.00456413   
0.084338     0.00039619   1.47058e-05  0.00469765   
0.086736     0.000419036  1.51236e-05  0.00483117   
0.089134     0.000442522  1.55414e-05  0.00496468   
0.091532     0.000466647  1.59592e-05  0.00509819   
0.09393      0.000491413  1.63769e-05  0.00523169   
0.096328     0.000516818  1.67946e-05  0.00536519   
0.098726     0.000542863  1.72122e-05  0.00549868   
0.101124     0.000569547  1.76298e-05  0.00563217   
0.103522     0.000596872  1.80474e-05  0.00576565   
0.10592      0.000624836  1.8465e-05   0.00589913   
0.108318     0.000653439  1.88825e-05  0.0060326    
0.110716     0.000682682  1.93e-05     0.00616607   
0.113114     0.000712565  1.97175e-05  0.00629953   
0.115512     0.000743087  2.01349e-05  0.00643298   
0.11791      0.000774248  2.05523e-05  0.00656643   
0.120308     0.000806049  2.09696e-05  0.00669988   
0.122706     0.000838488  2.13869e-05  0.00683331   
0.125104     0.000871567  2.18042e-05  0.00696674   
0.127502     0.000905286  2.22214e-05  0.00710017   
0.1299       0.000939643  2.26386e-05  0.00723359   
0.132298     0.000974639  2.30557e-05  0.007367     
0.134696     0.00101027   2.34728e-05  0.0075004    
0.137094     0.00104655   2.38899e-05  0.0076338    
0.139492     0.00108346   2.43069e-05  0.00776719   
0.14189      0.00112101   2.47239e-05  0.00790057   
0.144288     0.0011592    2.51408e-05  0.00803395   
0.146686     0.00119803   2.55577e-05  0.00816732   
0.149084     0.0012375    2.59745e-05  0.00830068   
0.151482     0.0012776    2.63913e-05  0.00843403   
0.15388      0.00131835   2.6808e-05   0.00856738   
0.156278     0.00135973   2.72247e-05  0.00870072   
0.158676     0.00140175   2.76414e-05  0.00883405   
0.161074     0.00144441   2.80579e-05  0.00896737   
0.163472     0.00148771   2.84745e-05  0.00910068   
0.16587      0.00153164   2.8891e-05   0.00923399   
0.168268     0.00157621   2.93074e-05  0.00936728   
0.170666     0.00162142   2.97238e-05  0.00950057   
0.173064     0.00166727   3.01401e-05  0.00963385   
0.175462     0.00171376   3.05563e-05  0.00976712   
0.17786      0.00176088   3.09726e-05  0.00990038   
0.180258     0.00180864   3.13887e-05  0.0100336    
0.182656     0.00185704   3.18048e-05  0.0101669    
0.185054     0.00190608   3.22208e-05  0.0103001    
0.187452     0.00195575   3.26368e-05  0.0104333    
0.18985      0.00200606   3.30527e-05  0.0105666    
0.192248     0.00205701   3.34686e-05  0.0106998    
0.194646     0.00210859   3.38844e-05  0.010833     
0.197044     0.00216081   3.43001e-05  0.0109661    
0.199442     0.00221367   3.47158e-05  0.0110993    
0.20184      0.00226716   3.51314e-05  0.0112325    
0.204238     0.00232129   3.55469e-05  0.0113656    
0.206636     0.00237606   3.59624e-05  0.0114988    
0.209034     0.00243147   3.63778e-05  0.0116319    
0.211432     0.00248751   3.67931e-05  0.011765     
0.21383      0.00254418   3.72084e-05  0.0118982    
0.216228     0.00260149   3.76236e-05  0.0120313    
0.218626     0.00265944   3.80388e-05  0.0121643    
0.221024     0.00271803   3.84538e-05  0.0122974    
0.223422     0.00277724   3.88688e-05  0.0124305    
0.22582      0.0028371    3.92837e-05  0.0125635    
0.228218     0.00289759   3.96986e-05  0.0126966    
0.230616     0.00295872   4.01134e-05  0.0128296    
0.233014     0.00302048   4.05281e-05  0.0129626    
0.235412     0.00308287   4.09427e-05  0.0130957    
0.23781      0.00314591   4.13573e-05  0.0132287    
0.240208     0.00320957   4.17717e-05  0.0133616    
0.242606     0.00327387   4.21861e-05  0.0134946    
0.245004     0.00333881   4.26005e-05  0.0136276    
0.247402     0.00340438   4.30147e-05  0.0137605    
0.2498       0.00347059   4.34289e-05  0.0138935    
0.252198     0.00353742   4.3843e-05   0.0140264    
0.254596     0.0036049    4.4257e-05   0.0141593    
0.256994     0.00367301   4.46709e-05  0.0142922    
0.259392     0.00374175   4.50847e-05  0.0144251    
0.26179      0.00381112   4.54985e-05  0.0145579    
0.264188     0.00388113   4.59122e-05  0.0146908    
0.266586     0.00395178   4.63258e-05  0.0148236    
0.268984     0.00402305   4.67393e-05  0.0149565    
0.271382     0.00409496   4.71527e-05  0.0150893    
0.27378      0.0041675    4.7566e-05   0.0152221    
0.276178     0.00424068   4.79793e-05  0.0153549    
0.278576     0.00431449   4.83924e-05  0.0154877    
0.280974     0.00438893   4.88055e-05  0.0156204    
0.283372     0.004464     4.92185e-05  0.0157532    
0.28577      0.00453971   4.96314e-05  0.0158859    
0.288168     0.00461605   5.00442e-05  0.0160186    
0.290566     0.00469302   5.04569e-05  0.0161513    
0.292964     0.00477062   5.08695e-05  0.016284     
0.295362     0.00484886   5.1282e-05   0.0164167    
0.29776      0.00492773   5.16944e-05  0.0165493    
0.300158     0.00500723   5.21067e-05  0.016682     
0.302556     0.00508736   5.2519e-05   0.0168146    
0.304954     0.00516812   5.29311e-05  0.0169472    
0.307352     0.00524951   5.33431e-05  0.0170798    
0.30975      0.00533153   5.37551e-05  0.0172124    
0.312148     0.00541419   5.41669e-05  0.0173449    
0.314546     0.00549747   5.45786e-05  0.0174775    
0.316944     0.00558139   5.49903e-05  0.01761      
0.319342     0.00566594   5.54018e-05  0.0177425    
0.32174      0.00575111   5.58133e-05  0.017875     
0.324138     0.00583692   5.62246e-05  0.0180075    
0.326536     0.00592336   5.66358e-05  0.01814      
0.328934     0.00601042   5.70469e-05  0.0182724    
0.331332     0.00609812   5.7458e-05   0.0184049    
0.33373      0.00618645   5.78689e-05  0.0185373    
0.336128     0.0062754    5.82797e-05  0.0186697    
0.338526     0.00636499   5.86904e-05  0.0188021    
0.340924     0.0064552    5.9101e-05   0.0189344    
0.343322     0.00654604   5.95114e-05  0.0190668    
0.34572      0.00663751   5.99218e-05  0.0191991    
0.348118     0.00672961   6.03321e-05  0.0193314    
0.350516     0.00682234   6.07422e-05  0.0194637    
0.352914     0.0069157    6.11523e-05  0.019596     
0.355312     0.00700968   6.15622e-05  0.0197282    
0.35771      0.00710429   6.1972e-05   0.0198605    
0.360108     0.00719953   6.23817e-05  0.0199927    
0.362506     0.0072954    6.27913e-05  0.0201249    
0.364904     0.00739189   6.32007e-05  0.0202571    
0.367302     0.00748901   6.36101e-05  0.0203893    
0.3697       0.00758676   6.40193e-05  0.0205214    
0.372098     0.00768514   6.44284e-05  0.0206535    
0.374496     0.00778414   6.48374e-05  0.0207856    
0.376894     0.00788377   6.52463e-05  0.0209177    
0.379292     0.00798402   6.5655e-05   0.0210498    
0.38169      0.0080849    6.60637e-05  0.0211819    
0.384088     0.00818641   6.64722e-05  0.0213139    
0.386486     0.00828854   6.68806e-05  0.0214459    
0.388884     0.0083913    6.72888e-05  0.0215779    
0.391282     0.00849468   6.7697e-05   0.0217099    
0.39368      0.00859869   6.8105e-05   0.0218418    
0.396078     0.00870332   6.85129e-05  0.0219737    
0.398476     0.00880858   6.89206e-05  0.0221057    
0.400874     0.00891446   6.93282e-05  0.0222376    
0.403272     0.00902096   6.97357e-05  0.0223694    
0.40567      0.00912809   7.01431e-05  0.0225013    
0.408068     0.00923585   7.05504e-05  0.0226331    
0.410466     0.00934422   7.09575e-05  0.0227649    
0.412864     0.00945322   7.13645e-05  0.0228967    
0.415262     0.00956285   7.17713e-05  0.0230285    
0.41766      0.0096731    7.2178e-05   0.0231602    
0.420058     0.00978397   7.25846e-05  0.0232919    
0.422456     0.00989546   7.29911e-05  0.0234236    
0.424854     0.0100076    7.33974e-05  0.0235553    
0.427252     0.0101203    7.38036e-05  0.023687     
0.42965      0.0102337    7.42096e-05  0.0238186    
0.432048     0.0103477    7.46155e-05  0.0239502    
0.434446     0.0104623    7.50213e-05  0.0240818    
0.436844     0.0105775    7.54269e-05  0.0242134    
0.439242     0.0106933    7.58324e-05  0.024345     
0.44164      0.0108098    7.62377e-05  0.0244765    
0.444038     0.0109269    7.66429e-05  0.024608     
0.446436     0.0110446    7.7048e-05   0.0247395    
0.448834     0.0111629    7.74529e-05  0.0248709    
0.451232     0.0112819    7.78577e-05  0.0250024    
0.45363      0.0114014    7.82623e-05  0.0251338    
0.456028     0.0115216    7.86668e-05  0.0252652    
0.458426     0.0116424    7.90712e-05  0.0253965    
0.460824     0.0117639    7.94754e-05  0.0255279    
0.463222     0.0118859    7.98794e-05  0.0256592    
0.46562      0.0120086    8.02833e-05  0.0257905    
0.468018     0.0121319    8.06871e-05  0.0259218    
0.470416     0.0122558    8.10907e-05  0.026053     
0.472814     0.0123803    8.14941e-05  0.0261842    
0.475212     0.0125054    8.18974e-05  0.0263154    
0.47761      0.0126312    8.23006e-05  0.0264466    
0.480008     0.0127575    8.27036e-05  0.0265778    
0.482406     0.0128845    8.31064e-05  0.0267089    
0.484804     0.0130121    8.35091e-05  0.02684      
0.487202     0.0131404    8.39116e-05  0.0269711    
0.4896       0.0132692    8.4314e-05   0.0271021    
0.491998     0.0133987    8.47162e-05  0.0272331    
0.494396     0.0135287    8.51183e-05  0.0273642    
0.496794     0.0136594    8.55202e-05  0.0274951    
0.499192     0.0137907    8.59219e-05  0.0276261    
0.50159      0.0139226    8.63235e-05  0.027757     
0.503988     0.0140552    8.6725e-05   0.0278879    
0.506386     0.0141883    8.71262e-05  0.0280188    
0.508784     0.0143221    8.75273e-05  0.0281496    
0.511182     0.0144565    8.79283e-05  0.0282805    
0.51358      0.0145914    8.8329e-05   0.0284112    
0.515978     0.0147271    8.87297e-05  0.028542     
0.518376     0.0148633    8.91301e-05  0.0286728    
0.520774     0.0150001    8.95304e-05  0.0288035    
0.523172     0.0151375    8.99305e-05  0.0289342    
0.52557      0.0152756    9.03304e-05  0.0290648    
0.527968     0.0154143    9.07302e-05  0.0291955    
0.530366     0.0155536    9.11298e-05  0.0293261    
0.532764     0.0156935    9.15293e-05  0.0294567    
0.535162     0.015834     9.19286e-05  0.0295872    
0.53756      0.0159751    9.23277e-05  0.0297178    
0.539958     0.0161168    9.27266e-05  0.0298483    
0.542356     0.0162591    9.31253e-05  0.0299787    
0.544754     0.0164021    9.35239e-05  0.0301092    
0.547152     0.0165457    9.39223e-05  0.0302396    
0.54955      0.0166898    9.43206e-05  0.03037      
0.551948     0.0168346    9.47186e-05  0.0305003    
0.554346     0.01698      9.51165e-05  0.0306307    
0.556744     0.017126     9.55142e-05  0.030761     
0.559142     0.0172726    9.59117e-05  0.0308913    
0.56154      0.0174198    9.63091e-05  0.0310215    
0.563938     0.0175676    9.67062e-05  0.0311517    
0.566336     0.0177161    9.71032e-05  0.0312819    
0.568734     0.0178651    9.75e-05     0.0314121    
0.571132     0.0180148    9.78967e-05  0.0315422    
0.57353      0.018165     9.82931e-05  0.0316723    
0.575928     0.0183159    9.86893e-05  0.0318024    
0.578326     0.0184674    9.90854e-05  0.0319324    
0.580724     0.0186194    9.94813e-05  0.0320625    
0.583122     0.0187721    9.9877e-05   0.0321924    
0.58552      0.0189254    0.000100273  0.0323224    
0.587918     0.0190793    0.000100668  0.0324523    
0.590316     0.0192338    0.000101063  0.0325822    
0.592714     0.0193889    0.000101458  0.0327121    
0.595112     0.0195446    0.000101853  0.0328419    
0.59751      0.0197009    0.000102247  0.0329717    
0.599908     0.0198579    0.000102642  0.0331015    
0.602306     0.0200154    0.000103036  0.0332313    
0.604704     0.0201735    0.00010343   0.033361     
0.607102     0.0203322    0.000103824  0.0334907    
0.6095       0.0204916    0.000104217  0.0336203    
0.611898     0.0206515    0.000104611  0.0337499    
0.614296     0.0208121    0.000105004  0.0338795    
0.616694     0.0209732    0.000105397  0.0340091    
0.619092     0.0211349    0.00010579   0.0341386    
0.62149      0.0212973    0.000106182  0.0342681    
0.623888     0.0214602    0.000106575  0.0343976    
0.626286     0.0216238    0.000106967  0.034527     
0.628684     0.0217879    0.000107359  0.0346564    
0.631082     0.0219527    0.000107751  0.0347858    
0.63348      0.022118     0.000108143  0.0349151    
0.635878     0.022284     0.000108534  0.0350444    
0.638276     0.0224505    0.000108925  0.0351737    
0.640674     0.0226177    0.000109316  0.0353029    
0.643072     0.0227854    0.000109707  0.0354321    
0.64547      0.0229537    0.000110098  0.0355613    
0.647868     0.0231227    0.000110488  0.0356904    
0.650266     0.0232922    0.000110878  0.0358195    
0.652664     0.0234624    0.000111268  0.0359486    
0.655062     0.0236331    0.000111658  0.0360776    
0.65746      0.0238044    0.000112048  0.0362066    
0.659858     0.0239763    0.000112437  0.0363356    
0.662256     0.0241489    0.000112826  0.0364646    
0.664654     0.024322     0.000113215  0.0365935    
0.667052     0.0244957    0.000113604  0.0367223    
0.66945      0.02467      0.000113992  0.0368512    
0.671848     0.0248449    0.000114381  0.03698      
0.674246     0.0250204    0.000114769  0.0371087    
0.676644     0.0251965    0.000115156  0.0372375    
0.679042     0.0253732    0.000115544  0.0373662    
0.68144      0.0255505    0.000115932  0.0374948    
0.683838     0.0257284    0.000116319  0.0376235    
0.686236     0.0259068    0.000116706  0.0377521    
0.688634     0.0260859    0.000117093  0.0378806    
0.691032     0.0262655    0.000117479  0.0380092    
0.69343      0.0264458    0.000117865  0.0381376    
0.695828     0.0266266    0.000118252  0.0382661    
0.698226     0.026808     0.000118637  0.0383945    
0.700624     0.0269901    0.000119023  0.0385229    
0.703022     0.0271727    0.000119409  0.0386512    
0.70542      0.0273559    0.000119794  0.0387796    
0.707818     0.0275397    0.000120179  0.0389078    
0.710216     0.027724     0.000120564  0.0390361    
0.712614     0.027909     0.000120948  0.0391643    
0.715012     0.0280946    0.000121332  0.0392924    
0.71741      0.0282807    0.000121717  0.0394206    
0.719808     0.0284674    0.0001221    0.0395487    
0.722206     0.0286548    0.000122484  0.0396767    
0.724604     0.0288427    0.000122867  0.0398047    
0.727002     0.0290312    0.000123251  0.0399327    
0.7294       0.0292203    0.000123633  0.0400607    
0.731798     0.0294099    0.000124016  0.0401886    
0.734196     0.0296002    0.000124399  0.0403165    
0.736594     0.029791     0.000124781  0.0404443    
0.738992     0.0299824    0.000125163  0.0405721    
0.74139      0.0301745    0.000125545  0.0406998    
0.743788     0.0303671    0.000125926  0.0408276    
0.746186     0.0305602    0.000126307  0.0409552    
0.748584     0.030754     0.000126689  0.0410829    
0.750982     0.0309483    0.000127069  0.0412105    
0.75338      0.0311433    0.00012745   0.0413381    
0.755778     0.0313388    0.00012783   0.0414656    
0.758176     0.0315349    0.00012821   0.0415931    
0.760574     0.0317316    0.00012859   0.0417205    
0.762972     0.0319288    0.00012897   0.041848     
0.76537      0.0321267    0.000129349  0.0419753    
0.767768     0.0323251    0.000129728  0.0421027    
0.770166     0.0325241    0.000130107  0.04223      
0.772564     0.0327237    0.000130486  0.0423572    
0.774962     0.0329238    0.000130864  0.0424844    
0.77736      0.0331246    0.000131242  0.0426116    
0.779758     0.0333259    0.00013162   0.0427387    
0.782156     0.0335278    0.000131998  0.0428658    
0.784554     0.0337303    0.000132375  0.0429929    
0.786952     0.0339333    0.000132752  0.0431199    
0.78935      0.0341369    0.000133129  0.0432469    
0.791748     0.0343412    0.000133506  0.0433738    
0.794146     0.0345459    0.000133882  0.0435007    
0.796544     0.0347513    0.000134258  0.0436276    
0.798942     0.0349572    0.000134634  0.0437544    
0.80134      0.0351638    0.00013501   0.0438812    
0.803738     0.0353708    0.000135385  0.0440079    
0.806136     0.0355785    0.00013576   0.0441346    
0.808534     0.0357867    0.000136135  0.0442613    
0.810932     0.0359956    0.00013651   0.0443879    
0.81333      0.0362049    0.000136884  0.0445145    
0.815728     0.0364149    0.000137258  0.044641     
0.818126     0.0366254    0.000137632  0.0447675    
0.820524     0.0368365    0.000138005  0.0448939    
0.822922     0.0370482    0.000138379  0.0450203    
0.82532      0.0372605    0.000138752  0.0451467    
0.827718     0.0374733    0.000139124  0.045273     
0.830116     0.0376867    0.000139497  0.0453993    
0.832514     0.0379006    0.000139869  0.0455255    
0.834912     0.0381152    0.000140241  0.0456517    
0.83731      0.0383303    0.000140613  0.0457779    
0.839708     0.0385459    0.000140984  0.045904     
0.842106     0.0387622    0.000141355  0.04603      
0.844504     0.038979     0.000141726  0.046156     
0.846902     0.0391963    0.000142097  0.046282     
0.8493       0.0394143    0.000142467  0.046408     
0.851698     0.0396328    0.000142837  0.0465338    
0.854096     0.0398519    0.000143207  0.0466597    
0.856494     0.0400715    0.000143577  0.0467855    
0.858892     0.0402917    0.000143946  0.0469113    
0.86129      0.0405125    0.000144315  0.047037     
0.863688     0.0407338    0.000144684  0.0471627    
0.866086     0.0409557    0.000145052  0.0472883    
0.868484     0.0411782    0.00014542   0.0474139    
0.870882     0.0414012    0.000145788  0.0475394    
0.87328      0.0416248    0.000146156  0.0476649    
0.875678     0.041849     0.000146523  0.0477904    
0.878076     0.0420737    0.00014689   0.0479158    
0.880474     0.042299     0.000147257  0.0480411    
0.882872     0.0425248    0.000147623  0.0481664    
0.88527      0.0427512    0.00014799   0.0482917    
0.887668     0.0429782    0.000148356  0.0484169    
0.890066     0.0432057    0.000148721  0.0485421    
0.892464     0.0434338    0.000149087  0.0486673    
0.894862     0.0436624    0.000149452  0.0487923    
0.89726      0.0438916    0.000149816  0.0489174    
