# Mass = 0.0479598 Mev*(hbarc)^2/2 
# R = 7.46549 fm 
# a = 0.662 fm 
# V0 = 59.5769 MeV 
# RSO = 6.87299 fm 
# aSO = 0.662 fm 
# VSO = 28.0171 MeV fm^2
# Rc = 7.46549 fm
# Zc = 81
# n = 1 
# l = 2 
# two_j = 5 
# two_t = 1 
# Energy = -10.2835 MeV
# r          u            Phi          u/r          
0.01         4.57129e-08  5.28172e-07  4.57129e-06  
0.012398     8.7115e-08   8.11848e-07  7.02654e-06  
0.014796     1.48071e-07  1.15626e-06  1.00075e-05  
0.017194     2.32361e-07  1.56141e-06  1.35141e-05  
0.019592     3.43768e-07  2.02728e-06  1.75464e-05  
0.02199      4.86073e-07  2.55388e-06  2.21043e-05  
0.024388     6.63056e-07  3.1412e-06   2.71878e-05  
0.026786     8.78497e-07  3.78922e-06  3.27969e-05  
0.029184     1.13618e-06  4.49796e-06  3.89315e-05  
0.031582     1.43988e-06  5.2674e-06   4.55916e-05  
0.03398      1.79337e-06  6.09752e-06  5.27772e-05  
0.036378     2.20044e-06  6.98833e-06  6.04882e-05  
0.038776     2.66487e-06  7.93981e-06  6.87246e-05  
0.041174     3.19042e-06  8.95196e-06  7.74863e-05  
0.043572     3.78089e-06  1.00248e-05  8.67733e-05  
0.04597      4.44003e-06  1.11582e-05  9.65855e-05  
0.048368     5.17164e-06  1.23523e-05  0.000106923  
0.050766     5.97949e-06  1.3607e-05   0.000117785  
0.053164     6.86734e-06  1.49223e-05  0.000129173  
0.055562     7.83897e-06  1.62981e-05  0.000141085  
0.05796      8.89815e-06  1.77346e-05  0.000153522  
0.060358     1.00487e-05  1.92316e-05  0.000166484  
0.062756     1.12943e-05  2.07892e-05  0.000179971  
0.065154     1.26387e-05  2.24073e-05  0.000193983  
0.067552     1.40858e-05  2.4086e-05   0.000208519  
0.06995      1.56394e-05  2.58251e-05  0.000223579  
0.072348     1.7303e-05   2.76247e-05  0.000239164  
0.074746     1.90806e-05  2.94848e-05  0.000255273  
0.077144     2.09759e-05  3.14053e-05  0.000271906  
0.079542     2.29927e-05  3.33862e-05  0.000289064  
0.08194      2.51347e-05  3.54276e-05  0.000306745  
0.084338     2.74056e-05  3.75293e-05  0.00032495   
0.086736     2.98093e-05  3.96914e-05  0.000343679  
0.089134     3.23495e-05  4.19138e-05  0.000362932  
0.091532     3.503e-05    4.41965e-05  0.000382708  
0.09393      3.78545e-05  4.65396e-05  0.000403007  
0.096328     4.08267e-05  4.89429e-05  0.00042383   
0.098726     4.39504e-05  5.14064e-05  0.000445176  
0.101124     4.72294e-05  5.39302e-05  0.000467045  
0.103522     5.06675e-05  5.65142e-05  0.000489437  
0.10592      5.42682e-05  5.91583e-05  0.000512351  
0.108318     5.80355e-05  6.18626e-05  0.000535788  
0.110716     6.19731e-05  6.4627e-05   0.000559748  
0.113114     6.60846e-05  6.74514e-05  0.00058423   
0.115512     7.03738e-05  7.0336e-05   0.000609234  
0.11791      7.48446e-05  7.32805e-05  0.00063476   
0.120308     7.95005e-05  7.62851e-05  0.000660808  
0.122706     8.43454e-05  7.93496e-05  0.000687378  
0.125104     8.93829e-05  8.2474e-05   0.000714469  
0.127502     9.46169e-05  8.56584e-05  0.000742081  
0.1299       0.000100051  8.89026e-05  0.000770215  
0.132298     0.000105689  9.22067e-05  0.00079887   
0.134696     0.000111534  9.55705e-05  0.000828046  
0.137094     0.000117591  9.89942e-05  0.000857742  
0.139492     0.000123863  0.000102478  0.000887959  
0.14189      0.000130354  0.000106021  0.000918696  
0.144288     0.000137067  0.000109623  0.000949953  
0.146686     0.000144006  0.000113286  0.00098173   
0.149084     0.000151175  0.000117008  0.00101403   
0.151482     0.000158578  0.000120789  0.00104684   
0.15388      0.000166218  0.00012463   0.00108018   
0.156278     0.000174099  0.000128531  0.00111403   
0.158676     0.000182225  0.000132491  0.00114841   
0.161074     0.000190599  0.00013651   0.0011833    
0.163472     0.000199225  0.000140588  0.00121871   
0.16587      0.000208107  0.000144726  0.00125464   
0.168268     0.000217249  0.000148924  0.00129109   
0.170666     0.000226653  0.00015318   0.00132805   
0.173064     0.000236325  0.000157496  0.00136554   
0.175462     0.000246267  0.00016187   0.00140354   
0.17786      0.000256484  0.000166304  0.00144205   
0.180258     0.000266978  0.000170797  0.00148109   
0.182656     0.000277754  0.000175349  0.00152064   
0.185054     0.000288815  0.00017996   0.00156071   
0.187452     0.000300165  0.00018463   0.00160129   
0.18985      0.000311807  0.000189358  0.00164239   
0.192248     0.000323746  0.000194146  0.001684     
0.194646     0.000335985  0.000198992  0.00172613   
0.197044     0.000348527  0.000203897  0.00176878   
0.199442     0.000361377  0.00020886   0.00181194   
0.20184      0.000374537  0.000213883  0.00185562   
0.204238     0.000388012  0.000218963  0.0018998    
0.206636     0.000401806  0.000224103  0.00194451   
0.209034     0.00041592   0.0002293    0.00198973   
0.211432     0.000430361  0.000234556  0.00203546   
0.21383      0.00044513   0.000239871  0.0020817    
0.216228     0.000460232  0.000245244  0.00212846   
0.218626     0.000475671  0.000250675  0.00217573   
0.221024     0.000491449  0.000256164  0.00222351   
0.223422     0.000507572  0.000261711  0.00227181   
0.22582      0.000524041  0.000267316  0.00232061   
0.228218     0.000540861  0.00027298   0.00236993   
0.230616     0.000558035  0.000278701  0.00241976   
0.233014     0.000575568  0.00028448   0.0024701    
0.235412     0.000593462  0.000290317  0.00252095   
0.23781      0.000611722  0.000296212  0.00257231   
0.240208     0.00063035   0.000302165  0.00262418   
0.242606     0.00064935   0.000308175  0.00267656   
0.245004     0.000668727  0.000314243  0.00272945   
0.247402     0.000688483  0.000320368  0.00278285   
0.2498       0.000708623  0.000326551  0.00283676   
0.252198     0.000729149  0.000332791  0.00289118   
0.254596     0.000750066  0.000339089  0.0029461    
0.256994     0.000771376  0.000345443  0.00300153   
0.259392     0.000793084  0.000351855  0.00305747   
0.26179      0.000815193  0.000358325  0.00311392   
0.264188     0.000837706  0.000364851  0.00317087   
0.266586     0.000860628  0.000371434  0.00322833   
0.268984     0.000883961  0.000378074  0.0032863    
0.271382     0.000907709  0.000384772  0.00334477   
0.27378      0.000931877  0.000391525  0.00340374   
0.276178     0.000956466  0.000398336  0.00346322   
0.278576     0.000981481  0.000405203  0.00352321   
0.280974     0.00100693   0.000412127  0.0035837    
0.283372     0.0010328    0.000419108  0.00364469   
0.28577      0.00105912   0.000426145  0.00370619   
0.288168     0.00108587   0.000433238  0.00376819   
0.290566     0.00111307   0.000440388  0.00383069   
0.292964     0.00114071   0.000447593  0.0038937    
0.295362     0.00116881   0.000454855  0.0039572    
0.29776      0.00119736   0.000462174  0.00402121   
0.300158     0.00122636   0.000469548  0.00408572   
0.302556     0.00125583   0.000476978  0.00415073   
0.304954     0.00128576   0.000484464  0.00421624   
0.307352     0.00131616   0.000492005  0.00428225   
0.30975      0.00134703   0.000499603  0.00434876   
0.312148     0.00137837   0.000507256  0.00441577   
0.314546     0.0014102    0.000514964  0.00448328   
0.316944     0.0014425    0.000522728  0.00455128   
0.319342     0.00147529   0.000530548  0.00461979   
0.32174      0.00150857   0.000538423  0.00468879   
0.324138     0.00154234   0.000546353  0.00475829   
0.326536     0.00157661   0.000554338  0.00482828   
0.328934     0.00161137   0.000562378  0.00489877   
0.331332     0.00164664   0.000570473  0.00496976   
0.33373      0.00168241   0.000578623  0.00504124   
0.336128     0.0017187    0.000586828  0.00511322   
0.338526     0.00175549   0.000595088  0.00518569   
0.340924     0.0017928    0.000603402  0.00525865   
0.343322     0.00183063   0.000611771  0.00533211   
0.34572      0.00186898   0.000620194  0.00540606   
0.348118     0.00190786   0.000628672  0.00548051   
0.350516     0.00194727   0.000637204  0.00555544   
0.352914     0.00198721   0.00064579   0.00563087   
0.355312     0.00202769   0.000654431  0.00570679   
0.35771      0.00206871   0.000663125  0.0057832    
0.360108     0.00211027   0.000671874  0.0058601    
0.362506     0.00215238   0.000680676  0.00593749   
0.364904     0.00219503   0.000689532  0.00601537   
0.367302     0.00223824   0.000698441  0.00609374   
0.3697       0.00228201   0.000707405  0.0061726    
0.372098     0.00232634   0.000716422  0.00625194   
0.374496     0.00237122   0.000725492  0.00633178   
0.376894     0.00241668   0.000734615  0.0064121    
0.379292     0.00246271   0.000743792  0.0064929    
0.38169      0.0025093    0.000753022  0.00657419   
0.384088     0.00255648   0.000762304  0.00665597   
0.386486     0.00260423   0.00077164   0.00673823   
0.388884     0.00265257   0.000781029  0.00682098   
0.391282     0.00270149   0.00079047   0.00690421   
0.39368      0.00275101   0.000799964  0.00698792   
0.396078     0.00280111   0.00080951   0.00707212   
0.398476     0.00285181   0.000819109  0.0071568    
0.400874     0.00290311   0.000828761  0.00724196   
0.403272     0.00295502   0.000838464  0.0073276    
0.40567      0.00300753   0.00084822   0.00741373   
0.408068     0.00306064   0.000858028  0.00750033   
0.410466     0.00311438   0.000867887  0.00758741   
0.412864     0.00316872   0.000877799  0.00767498   
0.415262     0.00322369   0.000887762  0.00776302   
0.41766      0.00327927   0.000897777  0.00785154   
0.420058     0.00333548   0.000907843  0.00794053   
0.422456     0.00339232   0.000917961  0.00803001   
0.424854     0.0034498    0.00092813   0.00811996   
0.427252     0.0035079    0.00093835   0.00821038   
0.42965      0.00356665   0.000948622  0.00830129   
0.432048     0.00362603   0.000958944  0.00839266   
0.434446     0.00368606   0.000969318  0.00848451   
0.436844     0.00374674   0.000979742  0.00857684   
0.439242     0.00380807   0.000990217  0.00866964   
0.44164      0.00387005   0.00100074   0.00876291   
0.444038     0.00393269   0.00101132   0.00885665   
0.446436     0.00399599   0.00102194   0.00895086   
0.448834     0.00405995   0.00103262   0.00904555   
0.451232     0.00412458   0.00104335   0.00914071   
0.45363      0.00418988   0.00105412   0.00923633   
0.456028     0.00425585   0.00106495   0.00933242   
0.458426     0.00432249   0.00107583   0.00942899   
0.460824     0.00438982   0.00108675   0.00952602   
0.463222     0.00445782   0.00109773   0.00962352   
0.46562      0.00452652   0.00110875   0.00972148   
0.468018     0.00459589   0.00111983   0.00981991   
0.470416     0.00466597   0.00113095   0.00991881   
0.472814     0.00473673   0.00114212   0.0100182    
0.475212     0.00480819   0.00115335   0.010118     
0.47761      0.00488035   0.00116462   0.0102183    
0.480008     0.00495322   0.00117594   0.010319     
0.482406     0.00502679   0.0011873    0.0104202    
0.484804     0.00510107   0.00119872   0.0105219    
0.487202     0.00517607   0.00121019   0.0106241    
0.4896       0.00525177   0.0012217    0.0107267    
0.491998     0.0053282    0.00123326   0.0108297    
0.494396     0.00540535   0.00124487   0.0109332    
0.496794     0.00548322   0.00125653   0.0110372    
0.499192     0.00556182   0.00126823   0.0111416    
0.50159      0.00564115   0.00127999   0.0112465    
0.503988     0.00572122   0.00129179   0.0113519    
0.506386     0.00580202   0.00130363   0.0114577    
0.508784     0.00588355   0.00131553   0.011564     
0.511182     0.00596584   0.00132747   0.0116707    
0.51358      0.00604886   0.00133946   0.0117778    
0.515978     0.00613264   0.0013515    0.0118855    
0.518376     0.00621716   0.00136358   0.0119935    
0.520774     0.00630244   0.00137571   0.0121021    
0.523172     0.00638848   0.00138789   0.012211     
0.52557      0.00647527   0.00140011   0.0123205    
0.527968     0.00656283   0.00141238   0.0124304    
0.530366     0.00665115   0.0014247    0.0125407    
0.532764     0.00674024   0.00143706   0.0126515    
0.535162     0.00683011   0.00144947   0.0127627    
0.53756      0.00692074   0.00146192   0.0128744    
0.539958     0.00701215   0.00147442   0.0129865    
0.542356     0.00710435   0.00148696   0.013099     
0.544754     0.00719732   0.00149955   0.0132121    
0.547152     0.00729108   0.00151219   0.0133255    
0.54955      0.00738563   0.00152487   0.0134394    
0.551948     0.00748097   0.00153759   0.0135538    
0.554346     0.00757711   0.00155036   0.0136685    
0.556744     0.00767404   0.00156318   0.0137838    
0.559142     0.00777176   0.00157604   0.0138994    
0.56154      0.0078703    0.00158894   0.0140156    
0.563938     0.00796963   0.00160189   0.0141321    
0.566336     0.00806978   0.00161489   0.0142491    
0.568734     0.00817073   0.00162792   0.0143665    
0.571132     0.0082725    0.001641     0.0144844    
0.57353      0.00837508   0.00165413   0.0146027    
0.575928     0.00847848   0.0016673    0.0147214    
0.578326     0.00858271   0.00168051   0.0148406    
0.580724     0.00868775   0.00169376   0.0149602    
0.583122     0.00879363   0.00170706   0.0150803    
0.58552      0.00890033   0.0017204    0.0152007    
0.587918     0.00900786   0.00173379   0.0153216    
0.590316     0.00911623   0.00174722   0.015443     
0.592714     0.00922544   0.00176069   0.0155647    
0.595112     0.00933549   0.0017742    0.0156869    
0.59751      0.00944638   0.00178775   0.0158096    
0.599908     0.00955811   0.00180135   0.0159326    
0.602306     0.0096707    0.00181499   0.0160561    
0.604704     0.00978413   0.00182867   0.01618      
0.607102     0.00989842   0.0018424    0.0163044    
0.6095       0.0100136    0.00185616   0.0164291    
0.611898     0.0101296    0.00186997   0.0165543    
0.614296     0.0102464    0.00188382   0.0166799    
0.616694     0.0103641    0.00189771   0.016806     
0.619092     0.0104827    0.00191164   0.0169324    
0.62149      0.0106022    0.00192561   0.0170593    
0.623888     0.0107225    0.00193962   0.0171866    
0.626286     0.0108437    0.00195367   0.0173143    
0.628684     0.0109658    0.00196777   0.0174425    
0.631082     0.0110888    0.0019819    0.0175711    
0.63348      0.0112126    0.00199608   0.0177       
0.635878     0.0113373    0.00201029   0.0178294    
0.638276     0.011463     0.00202454   0.0179592    
0.640674     0.0115895    0.00203884   0.0180895    
0.643072     0.0117168    0.00205317   0.0182201    
0.64547      0.0118451    0.00206754   0.0183512    
0.647868     0.0119743    0.00208196   0.0184826    
0.650266     0.0121044    0.00209641   0.0186145    
0.652664     0.0122354    0.0021109    0.0187468    
0.655062     0.0123673    0.00212543   0.0188795    
0.65746      0.0125       0.00214      0.0190126    
0.659858     0.0126337    0.0021546    0.0191462    
0.662256     0.0127684    0.00216925   0.0192801    
0.664654     0.0129039    0.00218393   0.0194144    
0.667052     0.0130403    0.00219865   0.0195492    
0.66945      0.0131777    0.00221341   0.0196843    
0.671848     0.0133159    0.00222821   0.0198199    
0.674246     0.0134551    0.00224305   0.0199558    
0.676644     0.0135953    0.00225792   0.0200922    
0.679042     0.0137363    0.00227283   0.020229     
0.68144      0.0138783    0.00228778   0.0203661    
0.683838     0.0140212    0.00230276   0.0205037    
0.686236     0.0141651    0.00231778   0.0206417    
0.688634     0.0143098    0.00233284   0.02078      
0.691032     0.0144556    0.00234793   0.0209188    
0.69343      0.0146022    0.00236306   0.021058     
0.695828     0.0147498    0.00237823   0.0211975    
0.698226     0.0148984    0.00239343   0.0213375    
0.700624     0.0150479    0.00240867   0.0214778    
0.703022     0.0151983    0.00242395   0.0216186    
0.70542      0.0153497    0.00243926   0.0217597    
0.707818     0.0155021    0.0024546    0.0219012    
0.710216     0.0156554    0.00246998   0.0220431    
0.712614     0.0158097    0.0024854    0.0221854    
0.715012     0.0159649    0.00250085   0.0223281    
0.71741      0.0161211    0.00251634   0.0224712    
0.719808     0.0162782    0.00253186   0.0226147    
0.722206     0.0164364    0.00254741   0.0227586    
0.724604     0.0165955    0.002563     0.0229028    
0.727002     0.0167555    0.00257862   0.0230474    
0.7294       0.0169166    0.00259428   0.0231924    
0.731798     0.0170786    0.00260997   0.0233378    
0.734196     0.0172416    0.00262569   0.0234836    
0.736594     0.0174056    0.00264145   0.0236298    
0.738992     0.0175705    0.00265724   0.0237763    
0.74139      0.0177365    0.00267307   0.0239232    
0.743788     0.0179034    0.00268892   0.0240705    
0.746186     0.0180713    0.00270481   0.0242182    
0.748584     0.0182402    0.00272074   0.0243663    
0.750982     0.0184101    0.00273669   0.0245147    
0.75338      0.018581     0.00275268   0.0246635    
0.755778     0.0187529    0.0027687    0.0248127    
0.758176     0.0189258    0.00278475   0.0249622    
0.760574     0.0190997    0.00280083   0.0251122    
0.762972     0.0192746    0.00281694   0.0252625    
0.76537      0.0194505    0.00283309   0.0254131    
0.767768     0.0196274    0.00284927   0.0255642    
0.770166     0.0198053    0.00286548   0.0257156    
0.772564     0.0199842    0.00288171   0.0258674    
0.774962     0.0201641    0.00289798   0.0260195    
0.77736      0.0203451    0.00291428   0.026172     
0.779758     0.020527     0.00293062   0.0263249    
0.782156     0.02071      0.00294698   0.0264781    
0.784554     0.020894     0.00296337   0.0266317    
0.786952     0.021079     0.00297979   0.0267857    
0.78935      0.0212651    0.00299624   0.02694      
0.791748     0.0214521    0.00301272   0.0270947    
0.794146     0.0216402    0.00302923   0.0272497    
0.796544     0.0218294    0.00304576   0.0274051    
0.798942     0.0220195    0.00306233   0.0275608    
0.80134      0.0222107    0.00307893   0.027717     
0.803738     0.0224029    0.00309555   0.0278734    
0.806136     0.0225962    0.00311221   0.0280302    
0.808534     0.0227905    0.00312889   0.0281874    
0.810932     0.0229858    0.0031456    0.0283449    
0.81333      0.0231822    0.00316233   0.0285028    
0.815728     0.0233796    0.0031791    0.028661     
0.818126     0.0235781    0.00319589   0.0288196    
0.820524     0.0237776    0.00321271   0.0289785    
0.822922     0.0239781    0.00322956   0.0291378    
0.82532      0.0241798    0.00324643   0.0292974    
0.827718     0.0243824    0.00326333   0.0294574    
0.830116     0.0245861    0.00328026   0.0296177    
0.832514     0.0247909    0.00329721   0.0297784    
0.834912     0.0249967    0.00331419   0.0299394    
0.83731      0.0252036    0.0033312    0.0301007    
0.839708     0.0254116    0.00334823   0.0302624    
0.842106     0.0256206    0.00336529   0.0304244    
0.844504     0.0258306    0.00338237   0.0305867    
0.846902     0.0260418    0.00339948   0.0307494    
0.8493       0.0262539    0.00341661   0.0309125    
0.851698     0.0264672    0.00343377   0.0310758    
0.854096     0.0266815    0.00345096   0.0312395    
0.856494     0.026897     0.00346817   0.0314036    
0.858892     0.0271134    0.0034854    0.0315679    
0.86129      0.027331     0.00350265   0.0317326    
0.863688     0.0275496    0.00351994   0.0318976    
0.866086     0.0277693    0.00353724   0.032063     
0.868484     0.0279901    0.00355457   0.0322287    
0.870882     0.0282119    0.00357192   0.0323947    
0.87328      0.0284349    0.0035893    0.032561     
0.875678     0.0286589    0.00360669   0.0327277    
0.878076     0.028884     0.00362411   0.0328947    
0.880474     0.0291102    0.00364156   0.033062     
0.882872     0.0293375    0.00365903   0.0332296    
0.88527      0.0295659    0.00367651   0.0333976    
0.887668     0.0297953    0.00369402   0.0335658    
0.890066     0.0300259    0.00371156   0.0337344    
0.892464     0.0302575    0.00372911   0.0339033    
0.894862     0.0304902    0.00374669   0.0340726    
0.89726      0.0307241    0.00376429   0.0342421    
