# Mass = 0.0480256 Mev*(hbarc)^2/2 
# R = 7.46549 fm 
# a = 0.662 fm 
# V0 = 45.1828 MeV 
# RSO = 6.87299 fm 
# aSO = 0.662 fm 
# VSO = 27.9403 MeV fm^2
# Rc = 7.46549 fm
# Zc = 0
# n = 0 
# l = 1 
# two_j = 1 
# two_t = -1 
# Energy = -36.5965 MeV
# r          u            Phi          u/r          
0.01         7.13844e-06  4.88119e-07  0.000713844  
0.012398     1.09725e-05  6.05167e-07  0.000885023  
0.014796     1.56275e-05  7.22213e-07  0.0010562    
0.017194     2.11035e-05  8.39258e-07  0.00122738   
0.019592     2.74004e-05  9.563e-07    0.00139855   
0.02199      3.45182e-05  1.07334e-06  0.00156972   
0.024388     4.24569e-05  1.19038e-06  0.00174089   
0.026786     5.12164e-05  1.30741e-06  0.00191206   
0.029184     6.07968e-05  1.42444e-06  0.00208322   
0.031582     7.1198e-05   1.54146e-06  0.00225438   
0.03398      8.24199e-05  1.65848e-06  0.00242554   
0.036378     9.44627e-05  1.7755e-06   0.0025967    
0.038776     0.000107326  1.89251e-06  0.00276785   
0.041174     0.00012101   2.00952e-06  0.002939     
0.043572     0.000135515  2.12652e-06  0.00311014   
0.04597      0.00015084   2.24351e-06  0.00328128   
0.048368     0.000166986  2.3605e-06   0.00345241   
0.050766     0.000183953  2.47748e-06  0.00362354   
0.053164     0.00020174   2.59445e-06  0.00379467   
0.055562     0.000220347  2.71142e-06  0.00396578   
0.05796      0.000239775  2.82838e-06  0.0041369    
0.060358     0.000260022  2.94533e-06  0.004308     
0.062756     0.000281091  3.06227e-06  0.0044791    
0.065154     0.000302979  3.1792e-06   0.0046502    
0.067552     0.000325688  3.29613e-06  0.00482129   
0.06995      0.000349216  3.41304e-06  0.00499237   
0.072348     0.000373565  3.52995e-06  0.00516344   
0.074746     0.000398733  3.64684e-06  0.00533451   
0.077144     0.000424722  3.76373e-06  0.00550557   
0.079542     0.00045153   3.8806e-06   0.00567662   
0.08194      0.000479158  3.99747e-06  0.00584766   
0.084338     0.000507605  4.11432e-06  0.0060187    
0.086736     0.000536872  4.23116e-06  0.00618972   
0.089134     0.000566958  4.34799e-06  0.00636074   
0.091532     0.000597864  4.4648e-06   0.00653175   
0.09393      0.000629589  4.58161e-06  0.00670275   
0.096328     0.000662134  4.6984e-06   0.00687374   
0.098726     0.000695497  4.81518e-06  0.00704472   
0.101124     0.000729679  4.93194e-06  0.00721569   
0.103522     0.000764681  5.04869e-06  0.00738665   
0.10592      0.000800501  5.16542e-06  0.0075576    
0.108318     0.00083714   5.28214e-06  0.00772854   
0.110716     0.000874597  5.39885e-06  0.00789947   
0.113114     0.000912873  5.51554e-06  0.00807038   
0.115512     0.000951968  5.63221e-06  0.00824129   
0.11791      0.00099188   5.74887e-06  0.00841218   
0.120308     0.00103261   5.86551e-06  0.00858306   
0.122706     0.00107416   5.98214e-06  0.00875393   
0.125104     0.00111653   6.09875e-06  0.00892479   
0.127502     0.00115971   6.21534e-06  0.00909563   
0.1299       0.00120371   6.33191e-06  0.00926646   
0.132298     0.00124853   6.44847e-06  0.00943728   
0.134696     0.00129417   6.565e-06    0.00960808   
0.137094     0.00134063   6.68152e-06  0.00977888   
0.139492     0.0013879    6.79802e-06  0.00994965   
0.14189      0.00143599   6.9145e-06   0.0101204    
0.144288     0.00148489   7.03096e-06  0.0102912    
0.146686     0.00153461   7.1474e-06   0.0104619    
0.149084     0.00158515   7.26382e-06  0.0106326    
0.151482     0.00163651   7.38022e-06  0.0108033    
0.15388      0.00168868   7.4966e-06   0.010974     
0.156278     0.00174167   7.61295e-06  0.0111447    
0.158676     0.00179547   7.72929e-06  0.0113153    
0.161074     0.00185009   7.8456e-06   0.011486     
0.163472     0.00190553   7.96189e-06  0.0116566    
0.16587      0.00196178   8.07816e-06  0.0118272    
0.168268     0.00201885   8.19441e-06  0.0119978    
0.170666     0.00207673   8.31063e-06  0.0121684    
0.173064     0.00213543   8.42683e-06  0.0123389    
0.175462     0.00219494   8.543e-06    0.0125095    
0.17786      0.00225526   8.65915e-06  0.01268      
0.180258     0.00231641   8.77528e-06  0.0128505    
0.182656     0.00237836   8.89138e-06  0.013021     
0.185054     0.00244113   9.00745e-06  0.0131915    
0.187452     0.00250471   9.1235e-06   0.0133619    
0.18985      0.00256911   9.23953e-06  0.0135323    
0.192248     0.00263432   9.35552e-06  0.0137027    
0.194646     0.00270035   9.4715e-06   0.0138731    
0.197044     0.00276719   9.58744e-06  0.0140435    
0.199442     0.00283484   9.70336e-06  0.0142139    
0.20184      0.0029033    9.81925e-06  0.0143842    
0.204238     0.00297258   9.93511e-06  0.0145545    
0.206636     0.00304267   1.00509e-05  0.0147248    
0.209034     0.00311357   1.01667e-05  0.014895     
0.211432     0.00318529   1.02825e-05  0.0150653    
0.21383      0.00325781   1.03983e-05  0.0152355    
0.216228     0.00333115   1.0514e-05   0.0154057    
0.218626     0.0034053    1.06297e-05  0.0155759    
0.221024     0.00348026   1.07453e-05  0.0157461    
0.223422     0.00355603   1.0861e-05   0.0159162    
0.22582      0.00363261   1.09765e-05  0.0160863    
0.228218     0.00371001   1.10921e-05  0.0162564    
0.230616     0.00378821   1.12076e-05  0.0164265    
0.233014     0.00386722   1.13231e-05  0.0165965    
0.235412     0.00394705   1.14386e-05  0.0167666    
0.23781      0.00402768   1.1554e-05   0.0169366    
0.240208     0.00410912   1.16694e-05  0.0171065    
0.242606     0.00419138   1.17848e-05  0.0172765    
0.245004     0.00427444   1.19002e-05  0.0174464    
0.247402     0.00435831   1.20155e-05  0.0176163    
0.2498       0.00444299   1.21307e-05  0.0177862    
0.252198     0.00452847   1.2246e-05   0.017956     
0.254596     0.00461477   1.23612e-05  0.0181259    
0.256994     0.00470187   1.24763e-05  0.0182957    
0.259392     0.00478978   1.25914e-05  0.0184654    
0.26179      0.0048785    1.27065e-05  0.0186352    
0.264188     0.00496803   1.28216e-05  0.0188049    
0.266586     0.00505836   1.29366e-05  0.0189746    
0.268984     0.0051495    1.30516e-05  0.0191443    
0.271382     0.00524144   1.31665e-05  0.0193139    
0.27378      0.00533419   1.32815e-05  0.0194835    
0.276178     0.00542775   1.33963e-05  0.0196531    
0.278576     0.00552211   1.35112e-05  0.0198226    
0.280974     0.00561728   1.36259e-05  0.0199922    
0.283372     0.00571326   1.37407e-05  0.0201617    
0.28577      0.00581003   1.38554e-05  0.0203311    
0.288168     0.00590761   1.39701e-05  0.0205006    
0.290566     0.006006     1.40847e-05  0.02067      
0.292964     0.00610519   1.41993e-05  0.0208394    
0.295362     0.00620518   1.43139e-05  0.0210087    
0.29776      0.00630598   1.44284e-05  0.0211781    
0.300158     0.00640758   1.45429e-05  0.0213474    
0.302556     0.00650998   1.46573e-05  0.0215166    
0.304954     0.00661319   1.47717e-05  0.0216859    
0.307352     0.0067172    1.4886e-05   0.0218551    
0.30975      0.00682201   1.50004e-05  0.0220242    
0.312148     0.00692762   1.51146e-05  0.0221934    
0.314546     0.00703403   1.52288e-05  0.0223625    
0.316944     0.00714124   1.5343e-05   0.0225316    
0.319342     0.00724926   1.54572e-05  0.0227006    
0.32174      0.00735807   1.55712e-05  0.0228696    
0.324138     0.00746769   1.56853e-05  0.0230386    
0.326536     0.0075781    1.57993e-05  0.0232076    
0.328934     0.00768931   1.59132e-05  0.0233765    
0.331332     0.00780133   1.60272e-05  0.0235453    
0.33373      0.00791414   1.6141e-05   0.0237142    
0.336128     0.00802775   1.62548e-05  0.023883     
0.338526     0.00814216   1.63686e-05  0.0240518    
0.340924     0.00825736   1.64823e-05  0.0242205    
0.343322     0.00837337   1.6596e-05   0.0243892    
0.34572      0.00849017   1.67097e-05  0.0245579    
0.348118     0.00860776   1.68232e-05  0.0247266    
0.350516     0.00872616   1.69368e-05  0.0248952    
0.352914     0.00884535   1.70503e-05  0.0250637    
0.355312     0.00896533   1.71637e-05  0.0252323    
0.35771      0.00908611   1.72771e-05  0.0254008    
0.360108     0.00920769   1.73904e-05  0.0255693    
0.362506     0.00933006   1.75037e-05  0.0257377    
0.364904     0.00945323   1.7617e-05   0.0259061    
0.367302     0.00957719   1.77302e-05  0.0260744    
0.3697       0.00970194   1.78433e-05  0.0262427    
0.372098     0.00982749   1.79564e-05  0.026411     
0.374496     0.00995383   1.80694e-05  0.0265793    
0.376894     0.010081     1.81824e-05  0.0267475    
0.379292     0.0102089    1.82954e-05  0.0269156    
0.38169      0.0103376    1.84083e-05  0.0270838    
0.384088     0.0104671    1.85211e-05  0.0272519    
0.386486     0.0105974    1.86339e-05  0.0274199    
0.388884     0.0107285    1.87466e-05  0.0275879    
0.391282     0.0108604    1.88593e-05  0.0277559    
0.39368      0.0109931    1.89719e-05  0.0279238    
0.396078     0.0111265    1.90845e-05  0.0280917    
0.398476     0.0112608    1.9197e-05   0.0282596    
0.400874     0.0113958    1.93094e-05  0.0284274    
0.403272     0.0115316    1.94218e-05  0.0285952    
0.40567      0.0116682    1.95342e-05  0.0287629    
0.408068     0.0118057    1.96465e-05  0.0289306    
0.410466     0.0119438    1.97587e-05  0.0290983    
0.412864     0.0120828    1.98709e-05  0.0292659    
0.415262     0.0122226    1.9983e-05   0.0294334    
0.41766      0.0123631    2.00951e-05  0.029601     
0.420058     0.0125045    2.02071e-05  0.0297684    
0.422456     0.0126466    2.0319e-05   0.0299359    
0.424854     0.0127895    2.04309e-05  0.0301033    
0.427252     0.0129332    2.05427e-05  0.0302706    
0.42965      0.0130777    2.06545e-05  0.030438     
0.432048     0.0132229    2.07662e-05  0.0306052    
0.434446     0.013369     2.08779e-05  0.0307725    
0.436844     0.0135158    2.09895e-05  0.0309396    
0.439242     0.0136634    2.1101e-05   0.0311068    
0.44164      0.0138118    2.12125e-05  0.0312739    
0.444038     0.013961     2.13239e-05  0.0314409    
0.446436     0.0141109    2.14353e-05  0.0316079    
0.448834     0.0142617    2.15466e-05  0.0317749    
0.451232     0.0144132    2.16578e-05  0.0319418    
0.45363      0.0145655    2.1769e-05   0.0321087    
0.456028     0.0147185    2.18801e-05  0.0322755    
0.458426     0.0148724    2.19912e-05  0.0324423    
0.460824     0.015027     2.21021e-05  0.032609     
0.463222     0.0151824    2.22131e-05  0.0327757    
0.46562      0.0153386    2.23239e-05  0.0329424    
0.468018     0.0154956    2.24347e-05  0.033109     
0.470416     0.0156533    2.25455e-05  0.0332755    
0.472814     0.0158118    2.26561e-05  0.033442     
0.475212     0.0159711    2.27667e-05  0.0336085    
0.47761      0.0161312    2.28773e-05  0.0337749    
0.480008     0.0162921    2.29877e-05  0.0339412    
0.482406     0.0164537    2.30981e-05  0.0341075    
0.484804     0.0166161    2.32085e-05  0.0342738    
0.487202     0.0167792    2.33188e-05  0.03444      
0.4896       0.0169432    2.3429e-05   0.0346062    
0.491998     0.0171079    2.35391e-05  0.0347723    
0.494396     0.0172734    2.36492e-05  0.0349384    
0.496794     0.0174396    2.37592e-05  0.0351044    
0.499192     0.0176067    2.38691e-05  0.0352703    
0.50159      0.0177745    2.3979e-05   0.0354362    
0.503988     0.017943     2.40888e-05  0.0356021    
0.506386     0.0181124    2.41986e-05  0.0357679    
0.508784     0.0182825    2.43082e-05  0.0359337    
0.511182     0.0184534    2.44178e-05  0.0360994    
0.51358      0.018625     2.45273e-05  0.0362651    
0.515978     0.0187974    2.46368e-05  0.0364307    
0.518376     0.0189706    2.47462e-05  0.0365962    
0.520774     0.0191446    2.48555e-05  0.0367617    
0.523172     0.0193193    2.49648e-05  0.0369272    
0.52557      0.0194948    2.50739e-05  0.0370926    
0.527968     0.019671     2.5183e-05   0.037258     
0.530366     0.019848     2.52921e-05  0.0374232    
0.532764     0.0200258    2.5401e-05   0.0375885    
0.535162     0.0202043    2.55099e-05  0.0377537    
0.53756      0.0203836    2.56187e-05  0.0379188    
0.539958     0.0205637    2.57275e-05  0.0380839    
0.542356     0.0207445    2.58361e-05  0.0382489    
0.544754     0.0209261    2.59447e-05  0.0384139    
0.547152     0.0211085    2.60533e-05  0.0385788    
0.54955      0.0212916    2.61617e-05  0.0387437    
0.551948     0.0214755    2.62701e-05  0.0389085    
0.554346     0.0216601    2.63784e-05  0.0390733    
0.556744     0.0218455    2.64866e-05  0.039238     
0.559142     0.0220317    2.65947e-05  0.0394026    
0.56154      0.0222186    2.67028e-05  0.0395672    
0.563938     0.0224062    2.68108e-05  0.0397317    
0.566336     0.0225947    2.69187e-05  0.0398962    
0.568734     0.0227838    2.70266e-05  0.0400606    
0.571132     0.0229738    2.71343e-05  0.040225     
0.57353      0.0231645    2.7242e-05   0.0403893    
0.575928     0.0233559    2.73496e-05  0.0405535    
0.578326     0.0235481    2.74572e-05  0.0407177    
0.580724     0.0237411    2.75646e-05  0.0408819    
0.583122     0.0239348    2.7672e-05   0.0410459    
0.58552      0.0241293    2.77793e-05  0.04121      
0.587918     0.0243245    2.78865e-05  0.0413739    
0.590316     0.0245204    2.79936e-05  0.0415378    
0.592714     0.0247172    2.81007e-05  0.0417017    
0.595112     0.0249146    2.82077e-05  0.0418654    
0.59751      0.0251128    2.83146e-05  0.0420292    
0.599908     0.0253118    2.84214e-05  0.0421928    
0.602306     0.0255115    2.85281e-05  0.0423564    
0.604704     0.025712     2.86348e-05  0.04252      
0.607102     0.0259132    2.87413e-05  0.0426835    
0.6095       0.0261152    2.88478e-05  0.0428469    
0.611898     0.0263179    2.89542e-05  0.0430102    
0.614296     0.0265213    2.90606e-05  0.0431735    
0.616694     0.0267255    2.91668e-05  0.0433368    
0.619092     0.0269305    2.9273e-05   0.0435       
0.62149      0.0271362    2.9379e-05   0.0436631    
0.623888     0.0273426    2.9485e-05   0.0438261    
0.626286     0.0275498    2.95909e-05  0.0439891    
0.628684     0.0277577    2.96968e-05  0.0441521    
0.631082     0.0279663    2.98025e-05  0.0443149    
0.63348      0.0281758    2.99081e-05  0.0444777    
0.635878     0.0283859    3.00137e-05  0.0446405    
0.638276     0.0285968    3.01192e-05  0.0448031    
0.640674     0.0288084    3.02246e-05  0.0449658    
0.643072     0.0290208    3.03299e-05  0.0451283    
0.64547      0.0292339    3.04351e-05  0.0452908    
0.647868     0.0294477    3.05403e-05  0.0454532    
0.650266     0.0296623    3.06453e-05  0.0456156    
0.652664     0.0298776    3.07503e-05  0.0457779    
0.655062     0.0300936    3.08551e-05  0.0459401    
0.65746      0.0303104    3.09599e-05  0.0461023    
0.659858     0.0305279    3.10646e-05  0.0462644    
0.662256     0.0307462    3.11692e-05  0.0464264    
0.664654     0.0309651    3.12738e-05  0.0465884    
0.667052     0.0311849    3.13782e-05  0.0467503    
0.66945      0.0314053    3.14825e-05  0.0469121    
0.671848     0.0316265    3.15868e-05  0.0470739    
0.674246     0.0318484    3.16909e-05  0.0472356    
0.676644     0.032071     3.1795e-05   0.0473972    
0.679042     0.0322944    3.1899e-05   0.0475588    
0.68144      0.0325185    3.20029e-05  0.0477203    
0.683838     0.0327433    3.21067e-05  0.0478817    
0.686236     0.0329689    3.22104e-05  0.0480431    
0.688634     0.0331952    3.2314e-05   0.0482044    
0.691032     0.0334222    3.24175e-05  0.0483656    
0.69343      0.0336499    3.25209e-05  0.0485268    
0.695828     0.0338784    3.26243e-05  0.0486879    
0.698226     0.0341076    3.27275e-05  0.0488489    
0.700624     0.0343375    3.28307e-05  0.0490098    
0.703022     0.0345681    3.29337e-05  0.0491707    
0.70542      0.0347995    3.30367e-05  0.0493315    
0.707818     0.0350315    3.31396e-05  0.0494923    
0.710216     0.0352643    3.32423e-05  0.049653     
0.712614     0.0354978    3.3345e-05   0.0498136    
0.715012     0.0357321    3.34476e-05  0.0499741    
0.71741      0.035967     3.35501e-05  0.0501346    
0.719808     0.0362027    3.36525e-05  0.050295     
0.722206     0.0364391    3.37548e-05  0.0504553    
0.724604     0.0366762    3.3857e-05   0.0506155    
0.727002     0.036914     3.39591e-05  0.0507757    
0.7294       0.0371526    3.40611e-05  0.0509358    
0.731798     0.0373918    3.4163e-05   0.0510958    
0.734196     0.0376318    3.42648e-05  0.0512558    
0.736594     0.0378725    3.43665e-05  0.0514157    
0.738992     0.0381139    3.44681e-05  0.0515755    
0.74139      0.038356     3.45696e-05  0.0517353    
0.743788     0.0385988    3.4671e-05   0.0518949    
0.746186     0.0388424    3.47724e-05  0.0520545    
0.748584     0.0390866    3.48736e-05  0.052214     
0.750982     0.0393316    3.49747e-05  0.0523735    
0.75338      0.0395772    3.50757e-05  0.0525329    
0.755778     0.0398236    3.51766e-05  0.0526922    
0.758176     0.0400707    3.52774e-05  0.0528514    
0.760574     0.0403184    3.53782e-05  0.0530105    
0.762972     0.0405669    3.54788e-05  0.0531696    
0.76537      0.0408161    3.55793e-05  0.0533286    
0.767768     0.041066     3.56797e-05  0.0534875    
0.770166     0.0413166    3.578e-05    0.0536464    
0.772564     0.0415679    3.58802e-05  0.0538052    
0.774962     0.04182      3.59803e-05  0.0539639    
0.77736      0.0420727    3.60803e-05  0.0541225    
0.779758     0.0423261    3.61802e-05  0.054281     
0.782156     0.0425802    3.628e-05    0.0544395    
0.784554     0.042835     3.63797e-05  0.0545979    
0.786952     0.0430905    3.64793e-05  0.0547562    
0.78935      0.0433467    3.65788e-05  0.0549144    
0.791748     0.0436036    3.66782e-05  0.0550726    
0.794146     0.0438612    3.67775e-05  0.0552307    
0.796544     0.0441195    3.68766e-05  0.0553887    
0.798942     0.0443785    3.69757e-05  0.0555466    
0.80134      0.0446382    3.70746e-05  0.0557045    
0.803738     0.0448986    3.71735e-05  0.0558622    
0.806136     0.0451597    3.72722e-05  0.0560199    
0.808534     0.0454214    3.73709e-05  0.0561775    
0.810932     0.0456839    3.74694e-05  0.0563351    
0.81333      0.0459471    3.75678e-05  0.0564925    
0.815728     0.0462109    3.76662e-05  0.0566499    
0.818126     0.0464754    3.77644e-05  0.0568072    
0.820524     0.0467406    3.78625e-05  0.0569644    
0.822922     0.0470065    3.79605e-05  0.0571215    
0.82532      0.0472731    3.80584e-05  0.0572786    
0.827718     0.0475404    3.81561e-05  0.0574355    
0.830116     0.0478084    3.82538e-05  0.0575924    
0.832514     0.048077     3.83514e-05  0.0577492    
0.834912     0.0483464    3.84488e-05  0.0579059    
0.83731      0.0486164    3.85461e-05  0.0580626    
0.839708     0.0488871    3.86434e-05  0.0582191    
0.842106     0.0491585    3.87405e-05  0.0583756    
0.844504     0.0494305    3.88375e-05  0.058532     
0.846902     0.0497033    3.89344e-05  0.0586883    
0.8493       0.0499767    3.90312e-05  0.0588445    
0.851698     0.0502508    3.91279e-05  0.0590007    
0.854096     0.0505255    3.92244e-05  0.0591568    
0.856494     0.050801     3.93209e-05  0.0593127    
0.858892     0.0510771    3.94172e-05  0.0594686    
0.86129      0.0513539    3.95134e-05  0.0596244    
0.863688     0.0516314    3.96095e-05  0.0597802    
0.866086     0.0519096    3.97055e-05  0.0599358    
0.868484     0.0521884    3.98014e-05  0.0600914    
0.870882     0.0524679    3.98972e-05  0.0602468    
0.87328      0.0527481    3.99928e-05  0.0604022    
0.875678     0.0530289    4.00884e-05  0.0605575    
0.878076     0.0533104    4.01838e-05  0.0607127    
0.880474     0.0535926    4.02791e-05  0.0608679    
0.882872     0.0538754    4.03743e-05  0.0610229    
0.88527      0.0541589    4.04694e-05  0.0611779    
0.887668     0.0544431    4.05644e-05  0.0613327    
0.890066     0.054728     4.06592e-05  0.0614875    
0.892464     0.0550135    4.07539e-05  0.0616422    
0.894862     0.0552996    4.08486e-05  0.0617968    
0.89726      0.0555865    4.09431e-05  0.0619514    
