# Mass = 0.0480256 Mev*(hbarc)^2/2 
# R = 7.46549 fm 
# a = 0.662 fm 
# V0 = 45.1828 MeV 
# RSO = 6.87299 fm 
# aSO = 0.662 fm 
# VSO = 27.9403 MeV fm^2
# Rc = 7.46549 fm
# Zc = 0
# n = 1 
# l = 2 
# two_j = 3 
# two_t = -1 
# Energy = -15.9038 MeV
# r          u            Phi          u/r          
0.01         5.06718e-08  4.78339e-08  5.06718e-06  
0.012398     9.6565e-08   7.35249e-08  7.78876e-06  
0.014796     1.64133e-07  1.04716e-07  1.10931e-05  
0.017194     2.57567e-07  1.41408e-07  1.498e-05    
0.019592     3.81059e-07  1.83599e-07  1.94497e-05  
0.02199      5.38799e-07  2.3129e-07   2.4502e-05   
0.024388     7.34979e-07  2.8448e-07   3.01369e-05  
0.026786     9.73789e-07  3.43167e-07  3.63544e-05  
0.029184     1.25942e-06  4.07352e-07  4.31544e-05  
0.031582     1.59605e-06  4.77033e-07  5.05368e-05  
0.03398      1.98789e-06  5.52211e-07  5.85017e-05  
0.036378     2.43911e-06  6.32883e-07  6.7049e-05   
0.038776     2.9539e-06   7.19049e-07  7.61786e-05  
0.041174     3.53645e-06  8.10709e-07  8.58904e-05  
0.043572     4.19095e-06  9.0786e-07   9.61844e-05  
0.04597      4.92157e-06  1.0105e-06   0.000107061  
0.048368     5.73251e-06  1.11863e-06  0.000118519  
0.050766     6.62795e-06  1.23226e-06  0.000130559  
0.053164     7.61206e-06  1.35136e-06  0.000143181  
0.055562     8.68903e-06  1.47596e-06  0.000156384  
0.05796      9.86305e-06  1.60603e-06  0.00017017   
0.060358     1.11383e-05  1.74159e-06  0.000184537  
0.062756     1.25189e-05  1.88264e-06  0.000199486  
0.065154     1.40091e-05  2.02916e-06  0.000215015  
0.067552     1.56131e-05  2.18116e-06  0.000231127  
0.06995      1.73349e-05  2.33863e-06  0.000247819  
0.072348     1.91789e-05  2.50158e-06  0.000265092  
0.074746     2.11491e-05  2.67e-06     0.000282947  
0.077144     2.32498e-05  2.8439e-06   0.000301382  
0.079542     2.54851e-05  3.02326e-06  0.000320398  
0.08194      2.78591e-05  3.20809e-06  0.000339994  
0.084338     3.03761e-05  3.39838e-06  0.000360171  
0.086736     3.30402e-05  3.59413e-06  0.000380928  
0.089134     3.58556e-05  3.79535e-06  0.000402266  
0.091532     3.88263e-05  4.00202e-06  0.000424183  
0.09393      4.19567e-05  4.21415e-06  0.00044668   
0.096328     4.52507e-05  4.43173e-06  0.000469757  
0.098726     4.87127e-05  4.65476e-06  0.000493413  
0.101124     5.23467e-05  4.88323e-06  0.000517649  
0.103522     5.61569e-05  5.11716e-06  0.000542464  
0.10592      6.01475e-05  5.35652e-06  0.000567858  
0.108318     6.43225e-05  5.60132e-06  0.00059383   
0.110716     6.86862e-05  5.85156e-06  0.000620382  
0.113114     7.32426e-05  6.10724e-06  0.000647512  
0.115512     7.7996e-05   6.36834e-06  0.00067522   
0.11791      8.29504e-05  6.63488e-06  0.000703506  
0.120308     8.811e-05    6.90684e-06  0.00073237   
0.122706     9.34789e-05  7.18422e-06  0.000761812  
0.125104     9.90613e-05  7.46701e-06  0.000791831  
0.127502     0.000104861  7.75523e-06  0.000822428  
0.1299       0.000110883  8.04885e-06  0.000853602  
0.132298     0.00011713   8.34788e-06  0.000885352  
0.134696     0.000123608  8.65232e-06  0.00091768   
0.137094     0.000130319  8.96216e-06  0.000950583  
0.139492     0.000137269  9.2774e-06   0.000984063  
0.14189      0.000144461  9.59803e-06  0.00101812   
0.144288     0.000151899  9.92405e-06  0.00105275   
0.146686     0.000159588  1.02555e-05  0.00108796   
0.149084     0.000167532  1.05923e-05  0.00112374   
0.151482     0.000175734  1.09344e-05  0.0011601    
0.15388      0.000184199  1.1282e-05   0.00119703   
0.156278     0.000192931  1.16349e-05  0.00123454   
0.158676     0.000201934  1.19932e-05  0.00127262   
0.161074     0.000211212  1.23568e-05  0.00131127   
0.163472     0.000220769  1.27258e-05  0.0013505    
0.16587      0.000230609  1.31002e-05  0.0013903    
0.168268     0.000240737  1.34799e-05  0.00143068   
0.170666     0.000251156  1.38649e-05  0.00147162   
0.173064     0.000261871  1.42553e-05  0.00151314   
0.175462     0.000272885  1.46511e-05  0.00155524   
0.17786      0.000284203  1.50521e-05  0.0015979    
0.180258     0.000295828  1.54585e-05  0.00164114   
0.182656     0.000307765  1.58702e-05  0.00168494   
0.185054     0.000320018  1.62873e-05  0.00172932   
0.187452     0.000332591  1.67096e-05  0.00177427   
0.18985      0.000345488  1.71373e-05  0.00181979   
0.192248     0.000358712  1.75702e-05  0.00186588   
0.194646     0.000372269  1.80085e-05  0.00191254   
0.197044     0.000386162  1.8452e-05   0.00195977   
0.199442     0.000400394  1.89009e-05  0.00200757   
0.20184      0.000414971  1.9355e-05   0.00205594   
0.204238     0.000429896  1.98144e-05  0.00210488   
0.206636     0.000445173  2.02791e-05  0.00215438   
0.209034     0.000460806  2.0749e-05   0.00220445   
0.211432     0.000476799  2.12242e-05  0.00225509   
0.21383      0.000493156  2.17046e-05  0.0023063    
0.216228     0.000509881  2.21904e-05  0.00235807   
0.218626     0.000526979  2.26813e-05  0.00241041   
0.221024     0.000544453  2.31775e-05  0.00246332   
0.223422     0.000562307  2.36789e-05  0.00251679   
0.22582      0.000580545  2.41856e-05  0.00257083   
0.228218     0.000599171  2.46974e-05  0.00262543   
0.230616     0.000618189  2.52145e-05  0.0026806    
0.233014     0.000637603  2.57368e-05  0.00273633   
0.235412     0.000657417  2.62643e-05  0.00279262   
0.23781      0.000677635  2.6797e-05   0.00284948   
0.240208     0.000698261  2.73349e-05  0.0029069    
0.242606     0.000719299  2.7878e-05   0.00296489   
0.245004     0.000740753  2.84262e-05  0.00302343   
0.247402     0.000762627  2.89797e-05  0.00308254   
0.2498       0.000784924  2.95382e-05  0.00314221   
0.252198     0.000807649  3.0102e-05   0.00320244   
0.254596     0.000830806  3.06709e-05  0.00326323   
0.256994     0.000854398  3.12449e-05  0.00332458   
0.259392     0.00087843   3.18241e-05  0.00338649   
0.26179      0.000902904  3.24085e-05  0.00344896   
0.264188     0.000927827  3.29979e-05  0.00351199   
0.266586     0.0009532    3.35925e-05  0.00357558   
0.268984     0.000979028  3.41922e-05  0.00363973   
0.271382     0.00100532   3.4797e-05   0.00370443   
0.27378      0.00103207   3.54068e-05  0.00376969   
0.276178     0.00105928   3.60218e-05  0.00383551   
0.278576     0.00108697   3.66419e-05  0.00390188   
0.280974     0.00111513   3.7267e-05   0.00396881   
0.283372     0.00114377   3.78972e-05  0.00403629   
0.28577      0.00117289   3.85325e-05  0.00410433   
0.288168     0.0012025    3.91728e-05  0.00417292   
0.290566     0.0012326    3.98182e-05  0.00424207   
0.292964     0.00126319   4.04686e-05  0.00431177   
0.295362     0.00129428   4.11241e-05  0.00438203   
0.29776      0.00132588   4.17845e-05  0.00445283   
0.300158     0.00135797   4.245e-05    0.00452419   
0.302556     0.00139058   4.31205e-05  0.0045961    
0.304954     0.0014237    4.3796e-05   0.00466856   
0.307352     0.00145733   4.44765e-05  0.00474157   
0.30975      0.00149149   4.5162e-05   0.00481513   
0.312148     0.00152617   4.58525e-05  0.00488924   
0.314546     0.00156137   4.65479e-05  0.0049639    
0.316944     0.00159711   4.72483e-05  0.0050391    
0.319342     0.00163339   4.79537e-05  0.00511486   
0.32174      0.0016702    4.8664e-05   0.00519116   
0.324138     0.00170756   4.93792e-05  0.00526801   
0.326536     0.00174547   5.00993e-05  0.00534541   
0.328934     0.00178392   5.08244e-05  0.00542335   
0.331332     0.00182293   5.15544e-05  0.00550183   
0.33373      0.0018625    5.22893e-05  0.00558086   
0.336128     0.00190263   5.30291e-05  0.00566044   
0.338526     0.00194333   5.37738e-05  0.00574056   
0.340924     0.00198459   5.45234e-05  0.00582122   
0.343322     0.00202643   5.52778e-05  0.00590242   
0.34572      0.00206885   5.60371e-05  0.00598417   
0.348118     0.00211184   5.68012e-05  0.00606645   
0.350516     0.00215542   5.75702e-05  0.00614928   
0.352914     0.00219959   5.8344e-05   0.00623265   
0.355312     0.00224435   5.91227e-05  0.00631656   
0.35771      0.0022897    5.99061e-05  0.006401     
0.360108     0.00233566   6.06944e-05  0.00648599   
0.362506     0.00238221   6.14875e-05  0.00657151   
0.364904     0.00242937   6.22853e-05  0.00665757   
0.367302     0.00247715   6.30879e-05  0.00674417   
0.3697       0.00252553   6.38953e-05  0.0068313    
0.372098     0.00257453   6.47075e-05  0.00691897   
0.374496     0.00262416   6.55244e-05  0.00700717   
0.376894     0.00267441   6.63461e-05  0.00709591   
0.379292     0.00272528   6.71725e-05  0.00718518   
0.38169      0.00277679   6.80036e-05  0.00727498   
0.384088     0.00282893   6.88394e-05  0.00736532   
0.386486     0.00288171   6.96799e-05  0.00745619   
0.388884     0.00293514   7.05251e-05  0.00754759   
0.391282     0.00298921   7.1375e-05   0.00763952   
0.39368      0.00304392   7.22296e-05  0.00773198   
0.396078     0.0030993    7.30888e-05  0.00782496   
0.398476     0.00315532   7.39527e-05  0.00791848   
0.400874     0.00321201   7.48213e-05  0.00801253   
0.403272     0.00326937   7.56944e-05  0.0081071    
0.40567      0.00332738   7.65722e-05  0.0082022    
0.408068     0.00338607   7.74546e-05  0.00829782   
0.410466     0.00344544   7.83416e-05  0.00839397   
0.412864     0.00350548   7.92332e-05  0.00849064   
0.415262     0.0035662    8.01294e-05  0.00858784   
0.41766      0.00362761   8.10301e-05  0.00868556   
0.420058     0.00368971   8.19355e-05  0.00878381   
0.422456     0.0037525    8.28453e-05  0.00888257   
0.424854     0.00381598   8.37597e-05  0.00898186   
0.427252     0.00388016   8.46786e-05  0.00908167   
0.42965      0.00394504   8.56021e-05  0.009182     
0.432048     0.00401063   8.653e-05    0.00928284   
0.434446     0.00407693   8.74625e-05  0.00938421   
0.436844     0.00414394   8.83994e-05  0.00948609   
0.439242     0.00421167   8.93408e-05  0.00958849   
0.44164      0.00428011   9.02867e-05  0.00969141   
0.444038     0.00434928   9.1237e-05   0.00979484   
0.446436     0.00441917   9.21918e-05  0.00989878   
0.448834     0.0044898    9.3151e-05   0.0100032    
0.451232     0.00456115   9.41146e-05  0.0101082    
0.45363      0.00463324   9.50826e-05  0.0102137    
0.456028     0.00470607   9.6055e-05   0.0103197    
0.458426     0.00477965   9.70318e-05  0.0104262    
0.460824     0.00485397   9.8013e-05   0.0105332    
0.463222     0.00492904   9.89986e-05  0.0106408    
0.46562      0.00500486   9.99884e-05  0.0107488    
0.468018     0.00508144   0.000100983  0.0108574    
0.470416     0.00515877   0.000101981  0.0109664    
0.472814     0.00523687   0.000102984  0.011076     
0.475212     0.00531574   0.000103991  0.011186     
0.47761      0.00539537   0.000105003  0.0112966    
0.480008     0.00547578   0.000106018  0.0114077    
0.482406     0.00555696   0.000107039  0.0115193    
0.484804     0.00563893   0.000108063  0.0116314    
0.487202     0.00572167   0.000109091  0.0117439    
0.4896       0.0058052    0.000110124  0.011857     
0.491998     0.00588952   0.000111161  0.0119706    
0.494396     0.00597463   0.000112202  0.0120847    
0.496794     0.00606053   0.000113248  0.0121993    
0.499192     0.00614724   0.000114297  0.0123144    
0.50159      0.00623474   0.000115351  0.01243      
0.503988     0.00632305   0.000116409  0.012546     
0.506386     0.00641217   0.000117471  0.0126626    
0.508784     0.0065021    0.000118537  0.0127797    
0.511182     0.00659284   0.000119607  0.0128972    
0.51358      0.0066844    0.000120682  0.0130153    
0.515978     0.00677678   0.00012176   0.0131339    
0.518376     0.00686998   0.000122843  0.0132529    
0.520774     0.00696401   0.000123929  0.0133724    
0.523172     0.00705887   0.00012502   0.0134924    
0.52557      0.00715456   0.000126115  0.013613     
0.527968     0.00725109   0.000127214  0.013734     
0.530366     0.00734846   0.000128316  0.0138554    
0.532764     0.00744667   0.000129423  0.0139774    
0.535162     0.00754572   0.000130534  0.0140999    
0.53756      0.00764562   0.000131649  0.0142228    
0.539958     0.00774638   0.000132768  0.0143463    
0.542356     0.00784798   0.00013389   0.0144702    
0.544754     0.00795045   0.000135017  0.0145946    
0.547152     0.00805377   0.000136147  0.0147194    
0.54955      0.00815796   0.000137282  0.0148448    
0.551948     0.00826301   0.00013842   0.0149706    
0.554346     0.00836894   0.000139563  0.015097     
0.556744     0.00847573   0.000140709  0.0152237    
0.559142     0.0085834    0.000141859  0.015351     
0.56154      0.00869195   0.000143013  0.0154788    
0.563938     0.00880137   0.00014417   0.015607     
0.566336     0.00891169   0.000145332  0.0157357    
0.568734     0.00902288   0.000146497  0.0158649    
0.571132     0.00913497   0.000147666  0.0159945    
0.57353      0.00924795   0.000148839  0.0161246    
0.575928     0.00936183   0.000150016  0.0162552    
0.578326     0.0094766    0.000151196  0.0163863    
0.580724     0.00959228   0.00015238   0.0165178    
0.583122     0.00970886   0.000153568  0.0166498    
0.58552      0.00982634   0.00015476   0.0167822    
0.587918     0.00994473   0.000155955  0.0169152    
0.590316     0.010064     0.000157154  0.0170486    
0.592714     0.0101843    0.000158357  0.0171824    
0.595112     0.0103054    0.000159563  0.0173167    
0.59751      0.0104275    0.000160773  0.0174515    
0.599908     0.0105504    0.000161986  0.0175868    
0.602306     0.0106744    0.000163203  0.0177225    
0.604704     0.0107992    0.000164424  0.0178587    
0.607102     0.010925     0.000165648  0.0179953    
0.6095       0.0110517    0.000166876  0.0181324    
0.611898     0.0111793    0.000168108  0.0182699    
0.614296     0.0113079    0.000169343  0.0184079    
0.616694     0.0114374    0.000170581  0.0185463    
0.619092     0.0115679    0.000171823  0.0186853    
0.62149      0.0116993    0.000173069  0.0188246    
0.623888     0.0118317    0.000174318  0.0189644    
0.626286     0.011965     0.00017557   0.0191047    
0.628684     0.0120993    0.000176826  0.0192454    
0.631082     0.0122345    0.000178085  0.0193866    
0.63348      0.0123707    0.000179348  0.0195282    
0.635878     0.0125079    0.000180614  0.0196702    
0.638276     0.012646     0.000181884  0.0198127    
0.640674     0.0127851    0.000183157  0.0199557    
0.643072     0.0129252    0.000184433  0.0200991    
0.64547      0.0130662    0.000185712  0.0202429    
0.647868     0.0132082    0.000186995  0.0203872    
0.650266     0.0133512    0.000188282  0.0205319    
0.652664     0.0134952    0.000189571  0.0206771    
0.655062     0.0136401    0.000190864  0.0208227    
0.65746      0.0137861    0.00019216   0.0209687    
0.659858     0.013933     0.000193459  0.0211152    
0.662256     0.014081     0.000194762  0.0212621    
0.664654     0.0142299    0.000196068  0.0214095    
0.667052     0.0143798    0.000197377  0.0215572    
0.66945      0.0145307    0.000198689  0.0217054    
0.671848     0.0146826    0.000200004  0.0218541    
0.674246     0.0148356    0.000201323  0.0220032    
0.676644     0.0149895    0.000202645  0.0221527    
0.679042     0.0151444    0.000203969  0.0223026    
0.68144      0.0153004    0.000205297  0.022453     
0.683838     0.0154573    0.000206628  0.0226038    
0.686236     0.0156153    0.000207962  0.022755     
0.688634     0.0157743    0.0002093    0.0229066    
0.691032     0.0159343    0.00021064   0.0230587    
0.69343      0.0160953    0.000211983  0.0232112    
0.695828     0.0162574    0.000213329  0.0233641    
0.698226     0.0164205    0.000214678  0.0235174    
0.700624     0.0165846    0.000216031  0.0236712    
0.703022     0.0167498    0.000217386  0.0238254    
0.70542      0.0169159    0.000218744  0.02398      
0.707818     0.0170832    0.000220105  0.024135     
0.710216     0.0172514    0.000221469  0.0242904    
0.712614     0.0174207    0.000222836  0.0244462    
0.715012     0.0175911    0.000224206  0.0246025    
0.71741      0.0177624    0.000225578  0.0247591    
0.719808     0.0179349    0.000226954  0.0249162    
0.722206     0.0181084    0.000228332  0.0250737    
0.724604     0.0182829    0.000229713  0.0252316    
0.727002     0.0184585    0.000231097  0.0253899    
0.7294       0.0186351    0.000232484  0.0255486    
0.731798     0.0188128    0.000233874  0.0257077    
0.734196     0.0189916    0.000235266  0.0258672    
0.736594     0.0191714    0.000236661  0.0260271    
0.738992     0.0193523    0.000238059  0.0261874    
0.74139      0.0195342    0.000239459  0.0263481    
0.743788     0.0197173    0.000240862  0.0265093    
0.746186     0.0199014    0.000242268  0.0266708    
0.748584     0.0200865    0.000243677  0.0268327    
0.750982     0.0202728    0.000245088  0.026995     
0.75338      0.0204601    0.000246501  0.0271577    
0.755778     0.0206485    0.000247918  0.0273208    
0.758176     0.0208379    0.000249337  0.0274843    
0.760574     0.0210285    0.000250758  0.0276482    
0.762972     0.0212201    0.000252182  0.0278125    
0.76537      0.0214129    0.000253609  0.0279771    
0.767768     0.0216067    0.000255038  0.0281422    
0.770166     0.0218016    0.000256469  0.0283076    
0.772564     0.0219976    0.000257903  0.0284735    
0.774962     0.0221947    0.00025934   0.0286397    
0.77736      0.0223929    0.000260779  0.0288063    
0.779758     0.0225921    0.00026222   0.0289733    
0.782156     0.0227925    0.000263664  0.0291406    
0.784554     0.022994     0.00026511   0.0293084    
0.786952     0.0231966    0.000266559  0.0294765    
0.78935      0.0234003    0.00026801   0.029645     
0.791748     0.0236051    0.000269463  0.0298139    
0.794146     0.023811     0.000270919  0.0299831    
0.796544     0.024018     0.000272377  0.0301528    
0.798942     0.0242261    0.000273837  0.0303228    
0.80134      0.0244354    0.000275299  0.0304932    
0.803738     0.0246457    0.000276764  0.0306639    
0.806136     0.0248572    0.000278231  0.030835     
0.808534     0.0250698    0.0002797    0.0310065    
0.810932     0.0252835    0.000281172  0.0311784    
0.81333      0.0254984    0.000282645  0.0313506    
0.815728     0.0257143    0.000284121  0.0315232    
0.818126     0.0259314    0.000285599  0.0316961    
0.820524     0.0261496    0.000287079  0.0318694    
0.822922     0.026369     0.000288561  0.0320431    
0.82532      0.0265894    0.000290045  0.0322171    
0.827718     0.026811     0.000291532  0.0323915    
0.830116     0.0270338    0.00029302   0.0325663    
0.832514     0.0272577    0.00029451   0.0327414    
0.834912     0.0274827    0.000296003  0.0329168    
0.83731      0.0277088    0.000297497  0.0330927    
0.839708     0.0279361    0.000298994  0.0332688    
0.842106     0.0281645    0.000300492  0.0334453    
0.844504     0.0283941    0.000301993  0.0336222    
0.846902     0.0286248    0.000303495  0.0337994    
0.8493       0.0288567    0.000304999  0.033977     
0.851698     0.0290897    0.000306505  0.0341549    
0.854096     0.0293238    0.000308013  0.0343332    
0.856494     0.0295591    0.000309523  0.0345118    
0.858892     0.0297956    0.000311035  0.0346907    
0.86129      0.0300332    0.000312548  0.03487      
0.863688     0.030272     0.000314063  0.0350497    
0.866086     0.0305119    0.000315581  0.0352296    
0.868484     0.030753     0.000317099  0.0354099    
0.870882     0.0309952    0.00031862   0.0355906    
0.87328      0.0312386    0.000320142  0.0357716    
0.875678     0.0314832    0.000321666  0.0359529    
0.878076     0.0317289    0.000323192  0.0361345    
0.880474     0.0319758    0.00032472   0.0363165    
0.882872     0.0322238    0.000326249  0.0364988    
0.88527      0.032473     0.000327779  0.0366815    
0.887668     0.0327234    0.000329312  0.0368644    
0.890066     0.0329749    0.000330846  0.0370477    
0.892464     0.0332276    0.000332381  0.0372314    
0.894862     0.0334815    0.000333918  0.0374153    
0.89726      0.0337366    0.000335457  0.0375996    
