# Mass = 0.0479598 Mev*(hbarc)^2/2 
# R = 7.46549 fm 
# a = 0.662 fm 
# V0 = 59.5769 MeV 
# RSO = 6.87299 fm 
# aSO = 0.662 fm 
# VSO = 28.0171 MeV fm^2
# Rc = 7.46549 fm
# Zc = 81
# n = 0 
# l = 4 
# two_j = 7 
# two_t = 1 
# Energy = -12.0197 MeV
# r          u            Phi          u/r          
0.01         9.01557e-14  2.18688e-12  9.01557e-12  
0.012398     2.64089e-13  5.16689e-12  2.13009e-11  
0.014796     6.39311e-13  1.04809e-11  4.32084e-11  
0.017194     1.3548e-12   1.91129e-11  7.87947e-11  
0.019592     2.60244e-12  3.22204e-11  1.32832e-10  
0.02199      4.63565e-12  5.11344e-11  2.10807e-10  
0.024388     7.77792e-12  7.73595e-11  3.18924e-10  
0.026786     1.24314e-11  1.12574e-10  4.64099e-10  
0.029184     1.90854e-11  1.58628e-10  6.53967e-10  
0.031582     2.83251e-11  2.17548e-10  8.96875e-10  
0.03398      4.08401e-11  2.91531e-10  1.20189e-09  
0.036378     5.74328e-11  3.82949e-10  1.57878e-09  
0.038776     7.90272e-11  4.94347e-10  2.03804e-09  
0.041174     1.06677e-10  6.28443e-10  2.59089e-09  
0.043572     1.41576e-10  7.88129e-10  3.24925e-09  
0.04597      1.85063e-10  9.76469e-10  4.02574e-09  
0.048368     2.38635e-10  1.1967e-09   4.93373e-09  
0.050766     3.0395e-10   1.45224e-09  5.98727e-09  
0.053164     3.82842e-10  1.74666e-09  7.20115e-09  
0.055562     4.77326e-10  2.08373e-09  8.59087e-09  
0.05796      5.89605e-10  2.46737e-09  1.01726e-08  
0.060358     7.22083e-10  2.90169e-09  1.19633e-08  
0.062756     8.77369e-10  3.39096e-09  1.39806e-08  
0.065154     1.05829e-09  3.93964e-09  1.62429e-08  
0.067552     1.26789e-09  4.55234e-09  1.87692e-08  
0.06995      1.50946e-09  5.23386e-09  2.15792e-08  
0.072348     1.78653e-09  5.98917e-09  2.46935e-08  
0.074746     2.10285e-09  6.82341e-09  2.81333e-08  
0.077144     2.46247e-09  7.74188e-09  3.19204e-08  
0.079542     2.86968e-09  8.75008e-09  3.60776e-08  
0.08194      3.32907e-09  9.85365e-09  4.06281e-08  
0.084338     3.84548e-09  1.10584e-08  4.5596e-08   
0.086736     4.42406e-09  1.23704e-08  5.10061e-08  
0.089134     5.07028e-09  1.37958e-08  5.68838e-08  
0.091532     5.78988e-09  1.53409e-08  6.32553e-08  
0.09393      6.58895e-09  1.70123e-08  7.01475e-08  
0.096328     7.47389e-09  1.88166e-08  7.7588e-08   
0.098726     8.45145e-09  2.07607e-08  8.56051e-08  
0.101124     9.5287e-09   2.28517e-08  9.42279e-08  
0.103522     1.07131e-08  2.50967e-08  1.03486e-07  
0.10592      1.20124e-08  2.75031e-08  1.1341e-07   
0.108318     1.34348e-08  3.00785e-08  1.24031e-07  
0.110716     1.49888e-08  3.28305e-08  1.35381e-07  
0.113114     1.66834e-08  3.57672e-08  1.47492e-07  
0.115512     1.85279e-08  3.88964e-08  1.60398e-07  
0.11791      2.0532e-08   4.22266e-08  1.74133e-07  
0.120308     2.27059e-08  4.5766e-08   1.88731e-07  
0.122706     2.506e-08    4.95233e-08  2.04228e-07  
0.125104     2.76054e-08  5.35072e-08  2.2066e-07   
0.127502     3.03536e-08  5.77266e-08  2.38064e-07  
0.1299       3.33163e-08  6.21907e-08  2.56476e-07  
0.132298     3.65059e-08  6.69085e-08  2.75937e-07  
0.134696     3.99352e-08  7.18897e-08  2.96484e-07  
0.137094     4.36173e-08  7.71438e-08  3.18156e-07  
0.139492     4.75662e-08  8.26805e-08  3.40996e-07  
0.14189      5.17959e-08  8.85098e-08  3.65043e-07  
0.144288     5.63212e-08  9.46418e-08  3.90339e-07  
0.146686     6.11573e-08  1.01087e-07  4.16926e-07  
0.149084     6.63199e-08  1.07855e-07  4.44849e-07  
0.151482     7.18253e-08  1.14958e-07  4.74151e-07  
0.15388      7.76902e-08  1.22405e-07  5.04875e-07  
0.156278     8.3932e-08   1.30208e-07  5.37069e-07  
0.158676     9.05685e-08  1.38378e-07  5.70777e-07  
0.161074     9.76182e-08  1.46926e-07  6.06046e-07  
0.163472     1.051e-07    1.55864e-07  6.42924e-07  
0.16587      1.13033e-07  1.65204e-07  6.81458e-07  
0.168268     1.21439e-07  1.74956e-07  7.21698e-07  
0.170666     1.30336e-07  1.85133e-07  7.63693e-07  
0.173064     1.39748e-07  1.95748e-07  8.07493e-07  
0.175462     1.49695e-07  2.06812e-07  8.5315e-07   
0.17786      1.60201e-07  2.18338e-07  9.00714e-07  
0.180258     1.71288e-07  2.30339e-07  9.50238e-07  
0.182656     1.8298e-07   2.42827e-07  1.00177e-06  
0.185054     1.95302e-07  2.55815e-07  1.05538e-06  
0.187452     2.08278e-07  2.69317e-07  1.1111e-06   
0.18985      2.21935e-07  2.83346e-07  1.169e-06    
0.192248     2.36299e-07  2.97915e-07  1.22913e-06  
0.194646     2.51396e-07  3.13039e-07  1.29155e-06  
0.197044     2.67255e-07  3.2873e-07   1.35632e-06  
0.199442     2.83903e-07  3.45002e-07  1.42349e-06  
0.20184      3.01371e-07  3.61871e-07  1.49312e-06  
0.204238     3.19688e-07  3.7935e-07   1.56527e-06  
0.206636     3.38884e-07  3.97453e-07  1.64e-06     
0.209034     3.5899e-07   4.16196e-07  1.71738e-06  
0.211432     3.80039e-07  4.35593e-07  1.79745e-06  
0.21383      4.02064e-07  4.55659e-07  1.8803e-06   
0.216228     4.25097e-07  4.76409e-07  1.96596e-06  
0.218626     4.49173e-07  4.97859e-07  2.05452e-06  
0.221024     4.74326e-07  5.20023e-07  2.14604e-06  
0.223422     5.00594e-07  5.42918e-07  2.24057e-06  
0.22582      5.28011e-07  5.6656e-07   2.33819e-06  
0.228218     5.56616e-07  5.90964e-07  2.43897e-06  
0.230616     5.86446e-07  6.16147e-07  2.54296e-06  
0.233014     6.17541e-07  6.42124e-07  2.65023e-06  
0.235412     6.49939e-07  6.68912e-07  2.76086e-06  
0.23781      6.83683e-07  6.96528e-07  2.87491e-06  
0.240208     7.18812e-07  7.24989e-07  2.99245e-06  
0.242606     7.55369e-07  7.54311e-07  3.11356e-06  
0.245004     7.93397e-07  7.84512e-07  3.2383e-06   
0.247402     8.3294e-07   8.15609e-07  3.36675e-06  
0.2498       8.74042e-07  8.47619e-07  3.49897e-06  
0.252198     9.1675e-07   8.8056e-07   3.63504e-06  
0.254596     9.61109e-07  9.1445e-07   3.77504e-06  
0.256994     1.00717e-06  9.49306e-07  3.91903e-06  
0.259392     1.05497e-06  9.85147e-07  4.0671e-06   
0.26179      1.10458e-06  1.02199e-06  4.21932e-06  
0.264188     1.15602e-06  1.05986e-06  4.37576e-06  
0.266586     1.20937e-06  1.09876e-06  4.53651e-06  
0.268984     1.26466e-06  1.13872e-06  4.70163e-06  
0.271382     1.32196e-06  1.17976e-06  4.87121e-06  
0.27378      1.38131e-06  1.2219e-06   5.04534e-06  
0.276178     1.44277e-06  1.26515e-06  5.22407e-06  
0.278576     1.5064e-06   1.30954e-06  5.40751e-06  
0.280974     1.57225e-06  1.35508e-06  5.59573e-06  
0.283372     1.64038e-06  1.4018e-06   5.7888e-06   
0.28577      1.71085e-06  1.44971e-06  5.98682e-06  
0.288168     1.78372e-06  1.49883e-06  6.18987e-06  
0.290566     1.85905e-06  1.54919e-06  6.39802e-06  
0.292964     1.93689e-06  1.6008e-06   6.61137e-06  
0.295362     2.01732e-06  1.65369e-06  6.83e-06     
0.29776      2.1004e-06   1.70787e-06  7.05399e-06  
0.300158     2.18618e-06  1.76337e-06  7.28344e-06  
0.302556     2.27474e-06  1.8202e-06   7.51842e-06  
0.304954     2.36615e-06  1.8784e-06   7.75904e-06  
0.307352     2.46046e-06  1.93797e-06  8.00536e-06  
0.30975      2.55776e-06  1.99895e-06  8.25749e-06  
0.312148     2.6581e-06   2.06134e-06  8.51552e-06  
0.314546     2.76157e-06  2.12518e-06  8.77953e-06  
0.316944     2.86822e-06  2.19049e-06  9.04961e-06  
0.319342     2.97814e-06  2.25729e-06  9.32586e-06  
0.32174      3.0914e-06   2.32559e-06  9.60838e-06  
0.324138     3.20807e-06  2.39543e-06  9.89724e-06  
0.326536     3.32823e-06  2.46682e-06  1.01926e-05  
0.328934     3.45197e-06  2.53979e-06  1.04944e-05  
0.331332     3.57934e-06  2.61436e-06  1.08029e-05  
0.33373      3.71045e-06  2.69056e-06  1.11181e-05  
0.336128     3.84536e-06  2.7684e-06   1.14402e-05  
0.338526     3.98416e-06  2.84791e-06  1.17691e-05  
0.340924     4.12693e-06  2.92911e-06  1.21051e-05  
0.343322     4.27375e-06  3.01203e-06  1.24482e-05  
0.34572      4.42472e-06  3.09669e-06  1.27986e-05  
0.348118     4.57992e-06  3.18311e-06  1.31562e-05  
0.350516     4.73943e-06  3.27133e-06  1.35213e-05  
0.352914     4.90335e-06  3.36135e-06  1.38939e-05  
0.355312     5.07176e-06  3.45321e-06  1.42741e-05  
0.35771      5.24476e-06  3.54694e-06  1.46621e-05  
0.360108     5.42244e-06  3.64255e-06  1.50578e-05  
0.362506     5.60489e-06  3.74006e-06  1.54615e-05  
0.364904     5.79221e-06  3.83952e-06  1.58733e-05  
0.367302     5.9845e-06   3.94093e-06  1.62931e-05  
0.3697       6.18184e-06  4.04433e-06  1.67212e-05  
0.372098     6.38435e-06  4.14975e-06  1.71577e-05  
0.374496     6.59212e-06  4.25719e-06  1.76026e-05  
0.376894     6.80525e-06  4.3667e-06   1.80561e-05  
0.379292     7.02384e-06  4.4783e-06   1.85183e-05  
0.38169      7.248e-06    4.59201e-06  1.89892e-05  
0.384088     7.47784e-06  4.70787e-06  1.94691e-05  
0.386486     7.71346e-06  4.82588e-06  1.99579e-05  
0.388884     7.95496e-06  4.9461e-06   2.04559e-05  
0.391282     8.20246e-06  5.06852e-06  2.0963e-05   
0.39368      8.45607e-06  5.1932e-06   2.14795e-05  
0.396078     8.71589e-06  5.32015e-06  2.20055e-05  
0.398476     8.98205e-06  5.4494e-06   2.2541e-05   
0.400874     9.25465e-06  5.58097e-06  2.30862e-05  
0.403272     9.53382e-06  5.7149e-06   2.36412e-05  
0.40567      9.81966e-06  5.85121e-06  2.4206e-05   
0.408068     1.01123e-05  5.98992e-06  2.47809e-05  
0.410466     1.04119e-05  6.13108e-06  2.5366e-05   
0.412864     1.07185e-05  6.2747e-06   2.59612e-05  
0.415262     1.10322e-05  6.42081e-06  2.65669e-05  
0.41766      1.13533e-05  6.56944e-06  2.7183e-05   
0.420058     1.16817e-05  6.72062e-06  2.78098e-05  
0.422456     1.20177e-05  6.87438e-06  2.84472e-05  
0.424854     1.23613e-05  7.03074e-06  2.90955e-05  
0.427252     1.27128e-05  7.18973e-06  2.97548e-05  
0.42965      1.30722e-05  7.35139e-06  3.04251e-05  
0.432048     1.34396e-05  7.51575e-06  3.11067e-05  
0.434446     1.38152e-05  7.68282e-06  3.17996e-05  
0.436844     1.41992e-05  7.85264e-06  3.25039e-05  
0.439242     1.45916e-05  8.02524e-06  3.32199e-05  
0.44164      1.49926e-05  8.20065e-06  3.39475e-05  
0.444038     1.54023e-05  8.3789e-06   3.46869e-05  
0.446436     1.58209e-05  8.56002e-06  3.54383e-05  
0.448834     1.62486e-05  8.74403e-06  3.62018e-05  
0.451232     1.66854e-05  8.93098e-06  3.69775e-05  
0.45363      1.71316e-05  9.12088e-06  3.77655e-05  
0.456028     1.75872e-05  9.31377e-06  3.8566e-05   
0.458426     1.80524e-05  9.50968e-06  3.9379e-05   
0.460824     1.85273e-05  9.70864e-06  4.02048e-05  
0.463222     1.90122e-05  9.91069e-06  4.10434e-05  
0.46562      1.95071e-05  1.01158e-05  4.1895e-05   
0.468018     2.00123e-05  1.03241e-05  4.27597e-05  
0.470416     2.05278e-05  1.05356e-05  4.36376e-05  
0.472814     2.10539e-05  1.07503e-05  4.45289e-05  
0.475212     2.15906e-05  1.09682e-05  4.54337e-05  
0.47761      2.21383e-05  1.11894e-05  4.63522e-05  
0.480008     2.26969e-05  1.14138e-05  4.72844e-05  
0.482406     2.32667e-05  1.16416e-05  4.82305e-05  
0.484804     2.38478e-05  1.18728e-05  4.91906e-05  
0.487202     2.44405e-05  1.21074e-05  5.0165e-05   
0.4896       2.50448e-05  1.23454e-05  5.11536e-05  
0.491998     2.5661e-05   1.25868e-05  5.21567e-05  
0.494396     2.62892e-05  1.28318e-05  5.31743e-05  
0.496794     2.69296e-05  1.30802e-05  5.42067e-05  
0.499192     2.75823e-05  1.33323e-05  5.5254e-05   
0.50159      2.82477e-05  1.35879e-05  5.63162e-05  
0.503988     2.89257e-05  1.38471e-05  5.73936e-05  
0.506386     2.96166e-05  1.411e-05    5.84863e-05  
0.508784     3.03207e-05  1.43766e-05  5.95944e-05  
0.511182     3.10379e-05  1.46469e-05  6.0718e-05   
0.51358      3.17687e-05  1.4921e-05   6.18573e-05  
0.515978     3.25131e-05  1.51988e-05  6.30125e-05  
0.518376     3.32713e-05  1.54805e-05  6.41837e-05  
0.520774     3.40435e-05  1.5766e-05   6.5371e-05   
0.523172     3.483e-05    1.60554e-05  6.65746e-05  
0.52557      3.56308e-05  1.63488e-05  6.77946e-05  
0.527968     3.64463e-05  1.66461e-05  6.90312e-05  
0.530366     3.72765e-05  1.69474e-05  7.02845e-05  
0.532764     3.81218e-05  1.72527e-05  7.15547e-05  
0.535162     3.89822e-05  1.75621e-05  7.28418e-05  
0.53756      3.9858e-05   1.78756e-05  7.41461e-05  
0.539958     4.07494e-05  1.81932e-05  7.54677e-05  
0.542356     4.16566e-05  1.8515e-05   7.68068e-05  
0.544754     4.25799e-05  1.8841e-05   7.81635e-05  
0.547152     4.35193e-05  1.91712e-05  7.95379e-05  
0.54955      4.44752e-05  1.95057e-05  8.09302e-05  
0.551948     4.54477e-05  1.98445e-05  8.23405e-05  
0.554346     4.64371e-05  2.01877e-05  8.37691e-05  
0.556744     4.74435e-05  2.05352e-05  8.5216e-05   
0.559142     4.84672e-05  2.08871e-05  8.66814e-05  
0.56154      4.95085e-05  2.12435e-05  8.81655e-05  
0.563938     5.05674e-05  2.16044e-05  8.96684e-05  
0.566336     5.16443e-05  2.19698e-05  9.11903e-05  
0.568734     5.27394e-05  2.23398e-05  9.27313e-05  
0.571132     5.38529e-05  2.27143e-05  9.42915e-05  
0.57353      5.4985e-05   2.30935e-05  9.58712e-05  
0.575928     5.6136e-05   2.34773e-05  9.74705e-05  
0.578326     5.73061e-05  2.38659e-05  9.90895e-05  
0.580724     5.84954e-05  2.42592e-05  0.000100728  
0.583122     5.97044e-05  2.46573e-05  0.000102387  
0.58552      6.09331e-05  2.50602e-05  0.000104067  
0.587918     6.21819e-05  2.54679e-05  0.000105766  
0.590316     6.34509e-05  2.58805e-05  0.000107486  
0.592714     6.47405e-05  2.62981e-05  0.000109227  
0.595112     6.60508e-05  2.67206e-05  0.000110989  
0.59751      6.73822e-05  2.71482e-05  0.000112772  
0.599908     6.87348e-05  2.75807e-05  0.000114575  
0.602306     7.01089e-05  2.80184e-05  0.000116401  
0.604704     7.15047e-05  2.84611e-05  0.000118247  
0.607102     7.29226e-05  2.8909e-05   0.000120116  
0.6095       7.43627e-05  2.93621e-05  0.000122006  
0.611898     7.58254e-05  2.98205e-05  0.000123918  
0.614296     7.73108e-05  3.02841e-05  0.000125853  
0.616694     7.88193e-05  3.0753e-05   0.000127809  
0.619092     8.03511e-05  3.12272e-05  0.000129789  
0.62149      8.19065e-05  3.17068e-05  0.000131791  
0.623888     8.34857e-05  3.21919e-05  0.000133815  
0.626286     8.50891e-05  3.26824e-05  0.000135863  
0.628684     8.67168e-05  3.31784e-05  0.000137934  
0.631082     8.83692e-05  3.368e-05    0.000140028  
0.63348      9.00465e-05  3.41871e-05  0.000142146  
0.635878     9.1749e-05   3.46998e-05  0.000144287  
0.638276     9.34769e-05  3.52182e-05  0.000146452  
0.640674     9.52307e-05  3.57423e-05  0.000148641  
0.643072     9.70105e-05  3.62722e-05  0.000150855  
0.64547      9.88166e-05  3.68078e-05  0.000153093  
0.647868     0.000100649  3.73492e-05  0.000155355  
0.650266     0.000102509  3.78965e-05  0.000157642  
0.652664     0.000104396  3.84496e-05  0.000159954  
0.655062     0.00010631   3.90087e-05  0.00016229   
0.65746      0.000108252  3.95738e-05  0.000164652  
0.659858     0.000110223  4.01449e-05  0.00016704   
0.662256     0.000112221  4.0722e-05   0.000169453  
0.664654     0.000114248  4.13053e-05  0.000171892  
0.667052     0.000116305  4.18947e-05  0.000174356  
0.66945      0.00011839   4.24902e-05  0.000176847  
0.671848     0.000120505  4.3092e-05   0.000179364  
0.674246     0.00012265   4.37e-05     0.000181907  
0.676644     0.000124826  4.43143e-05  0.000184477  
0.679042     0.000127031  4.4935e-05   0.000187074  
0.68144      0.000129268  4.5562e-05   0.000189698  
0.683838     0.000131536  4.61955e-05  0.000192349  
0.686236     0.000133835  4.68354e-05  0.000195027  
0.688634     0.000136166  4.74819e-05  0.000197733  
0.691032     0.000138529  4.81348e-05  0.000200467  
0.69343      0.000140925  4.87944e-05  0.000203228  
0.695828     0.000143353  4.94606e-05  0.000206018  
0.698226     0.000145814  5.01334e-05  0.000208835  
0.700624     0.000148309  5.0813e-05   0.000211682  
0.703022     0.000150838  5.14993e-05  0.000214556  
0.70542      0.0001534    5.21925e-05  0.00021746   
0.707818     0.000155998  5.28924e-05  0.000220392  
0.710216     0.000158629  5.35993e-05  0.000223354  
0.712614     0.000161296  5.4313e-05   0.000226345  
0.715012     0.000163999  5.50337e-05  0.000229365  
0.71741      0.000166737  5.57615e-05  0.000232415  
0.719808     0.000169512  5.64963e-05  0.000235496  
0.722206     0.000172322  5.72381e-05  0.000238606  
0.724604     0.00017517   5.79871e-05  0.000241746  
0.727002     0.000178055  5.87433e-05  0.000244917  
0.7294       0.000180978  5.95067e-05  0.000248119  
0.731798     0.000183938  6.02774e-05  0.000251351  
0.734196     0.000186937  6.10553e-05  0.000254614  
0.736594     0.000189974  6.18406e-05  0.000257909  
0.738992     0.00019305   6.26333e-05  0.000261235  
0.74139      0.000196166  6.34335e-05  0.000264592  
0.743788     0.000199322  6.42411e-05  0.000267982  
0.746186     0.000202517  6.50562e-05  0.000271403  
0.748584     0.000205753  6.58789e-05  0.000274856  
0.750982     0.00020903   6.67092e-05  0.000278342  
0.75338      0.000212348  6.75472e-05  0.00028186   
0.755778     0.000215708  6.83928e-05  0.000285411  
0.758176     0.000219109  6.92462e-05  0.000288995  
0.760574     0.000222553  7.01074e-05  0.000292612  
0.762972     0.00022604   7.09763e-05  0.000296263  
0.76537      0.00022957   7.18532e-05  0.000299947  
0.767768     0.000233144  7.2738e-05   0.000303664  
0.770166     0.000236761  7.36307e-05  0.000307416  
0.772564     0.000240423  7.45314e-05  0.000311201  
0.774962     0.000244129  7.54402e-05  0.000315021  
0.77736      0.000247881  7.63571e-05  0.000318875  
0.779758     0.000251678  7.7282e-05   0.000322764  
0.782156     0.000255521  7.82152e-05  0.000326688  
0.784554     0.000259411  7.91566e-05  0.000330647  
0.786952     0.000263347  8.01063e-05  0.000334641  
0.78935      0.00026733   8.10642e-05  0.000338671  
0.791748     0.000271361  8.20306e-05  0.000342736  
0.794146     0.00027544   8.30053e-05  0.000346837  
0.796544     0.000279567  8.39885e-05  0.000350975  
0.798942     0.000283743  8.49801e-05  0.000355148  
0.80134      0.000287968  8.59803e-05  0.000359358  
0.803738     0.000292243  8.69891e-05  0.000363605  
0.806136     0.000296568  8.80065e-05  0.000367888  
0.808534     0.000300943  8.90325e-05  0.000372209  
0.810932     0.00030537   9.00673e-05  0.000376566  
0.81333      0.000309847  9.11109e-05  0.000380961  
0.815728     0.000314377  9.21632e-05  0.000385394  
0.818126     0.000318959  9.32244e-05  0.000389865  
0.820524     0.000323593  9.42945e-05  0.000394374  
0.822922     0.000328281  9.53735e-05  0.000398921  
0.82532      0.000333022  9.64615e-05  0.000403506  
0.827718     0.000337817  9.75586e-05  0.000408131  
0.830116     0.000342667  9.86647e-05  0.000412794  
0.832514     0.000347571  9.97799e-05  0.000417496  
0.834912     0.000352531  0.000100904  0.000422237  
0.83731      0.000357547  0.000102038  0.000427018  
0.839708     0.000362618  0.000103181  0.000431839  
0.842106     0.000367747  0.000104333  0.000436699  
0.844504     0.000372933  0.000105495  0.0004416    
0.846902     0.000378176  0.000106665  0.000446541  
0.8493       0.000383478  0.000107846  0.000451522  
0.851698     0.000388838  0.000109036  0.000456545  
0.854096     0.000394257  0.000110235  0.000461608  
0.856494     0.000399736  0.000111444  0.000466712  
0.858892     0.000405275  0.000112663  0.000471858  
0.86129      0.000410874  0.000113891  0.000477045  
0.863688     0.000416534  0.000115129  0.000482274  
0.866086     0.000422256  0.000116377  0.000487545  
0.868484     0.000428039  0.000117634  0.000492858  
0.870882     0.000433885  0.000118902  0.000498213  
0.87328      0.000439794  0.000120179  0.000503611  
0.875678     0.000445766  0.000121466  0.000509052  
0.878076     0.000451802  0.000122764  0.000514536  
0.880474     0.000457902  0.000124071  0.000520064  
0.882872     0.000464068  0.000125388  0.000525634  
0.88527      0.000470298  0.000126716  0.000531249  
0.887668     0.000476595  0.000128054  0.000536907  
0.890066     0.000482958  0.000129401  0.000542609  
0.892464     0.000489388  0.00013076   0.000548356  
0.894862     0.000495885  0.000132128  0.000554147  
0.89726      0.00050245   0.000133507  0.000559983  
