# mass number (A) = 27
# number of protons (Z) = 13
#relative orbital quantum number l = 2
# k (1/fm)	total two_body (fm^3)
0.0	1.05027364107
0.02	1.04951246588
0.04	1.04723264113
0.06	1.04344521354
0.08	1.03816841036
0.1	1.03142736997
0.12	1.02325377773
0.14	1.01368541902
0.16	1.00276566448
0.18	0.990542903858
0.2	0.977069946335
0.22	0.962403405482
0.24	0.946603086711
0.26	0.929731393882
0.28	0.911852770054
0.3	0.893033184963
0.32	0.873339679048
0.34	0.852839970732
0.36	0.831602130383
0.38	0.809694321144
0.4	0.787184603641
0.42	0.7641407988
0.44	0.740630400488
0.46	0.716720527828
0.48	0.692477905617
0.5	0.667968860573
0.52	0.643259320981
0.54	0.618414807823
0.56	0.593500406511
0.58	0.568580709893
0.6	0.543719725142
0.62	0.518980739382
0.64	0.494426141319
0.66	0.470117198649
0.68	0.446113793446
0.7	0.422474120007
0.72	0.399254351672
0.74	0.376508284845
0.76	0.354286969734
0.78	0.332638338208
0.8	0.311606839628
0.82	0.291233095444
0.84	0.271553582949
0.86	0.252600357714
0.88	0.234400823075
0.9	0.216977553585
0.92	0.200348177698
0.94	0.184525323166
0.96	0.169516626802
0.98	0.155324808417
1.0	0.141947807026
1.02	0.129378975799
1.04	0.117607330829
1.06	0.106617847584
1.08	0.0963917980065
1.1	0.0869071205116
1.12	0.0781388147621
1.14	0.0700593529422
1.16	0.0626390993576
1.18	0.0558467305139
1.2	0.0496496483441
1.22	0.0440143799312
1.24	0.0389069578732
1.26	0.0342932763258
1.28	0.0301394186973
1.3	0.0264119539278
1.32	0.0230781992313
1.34	0.0201064480821
1.36	0.0174661630745
1.38	0.0151281340454
1.4	0.0130646025229
1.42	0.0112493541337
1.44	0.00965778106504
1.46	0.00826691703853
1.48	0.00705544750606
1.5	0.00600369794099
1.52	0.0050936031663
1.54	0.00430866065569
1.56	0.00363387066775
1.58	0.00305566594264
1.6	0.00256183351429
1.62	0.00214143098206
1.64	0.00178469935277
1.66	0.00148297431856
1.68	0.00122859758446
1.7	0.00101482961154
1.72	0.000835764901055
1.74	0.00068625071817
1.76	0.000561809944217
1.78	0.000458568555701
1.8	0.000373188059129
1.82	0.000302803063003
1.84	0.000244964042311
1.86	0.000197585245843
1.88	0.00015889761147
1.9	0.000127406487698
1.92	0.000101853909583
1.94	8.1185141633e-05
1.96	6.45191776542e-05
1.98	5.11228757932e-05
2.0	4.03884043262e-05
2.02	3.18136784615e-05
2.04	2.49854788648e-05
2.06	1.95649574332e-05
2.08	1.52752537569e-05
2.1	1.18909656651e-05
2.12	9.22923833805e-06
2.14	7.14225795145e-06
2.16	5.51095710017e-06
2.18	4.23975987563e-06
2.2	3.25221409741e-06
2.22	2.48737658987e-06
2.24	1.89683439474e-06
2.26	1.44226033901e-06
2.28	1.09341541028e-06
2.3	8.26522949054e-07
2.32	6.22950803059e-07
2.34	4.68147381843e-07
2.36	3.50786093855e-07
2.38	2.6208004822e-07
2.4	1.95235267117e-07
2.42	1.45016090856e-07
2.44	1.0740107192e-07
2.46	7.93115465741e-08
2.48	5.83983367208e-08
2.5	4.28747561093e-08
2.52	3.13863515839e-08
2.54	2.29096709519e-08
2.56	1.6673875694e-08
2.58	1.21002627219e-08
2.6	8.75577123035e-09
2.62	6.31736838572e-09
2.64	4.54486521142e-09
2.66	3.2602404398e-09
2.68	2.33196952547e-09
2.7	1.66318868687e-09
2.72	1.18278652711e-09
2.74	8.38722292905e-10
2.76	5.93031472749e-10
2.78	4.18105417868e-10
2.8	2.93929445425e-10
2.82	2.06039451016e-10
2.84	1.44015220837e-10
2.86	1.00373218857e-10
2.88	6.97556630227e-11
2.9	4.83385879744e-11
2.92	3.34011959808e-11
2.94	2.30135880292e-11
2.96	1.58110820494e-11
2.98	1.08316461812e-11
3.0	7.39918043934e-12
3.02	5.03999039575e-12
3.04	3.42320876711e-12
3.06	2.31843695046e-12
3.08	1.56572704716e-12
3.1	1.05437791996e-12
3.12	7.08005535275e-13
3.14	4.74064805061e-13
3.16	3.16519220274e-13
3.18	2.10729028902e-13
3.2	1.39897880879e-13
3.22	9.26106593709e-14
3.24	6.11328239328e-14
3.26	4.0239460018e-14
3.28	2.64115927442e-14
3.3	1.72863121296e-14
3.32	1.1281736762e-14
3.34	7.34202673811e-15
3.36	4.76456085191e-15
3.38	3.08316830182e-15
3.4	1.98947982535e-15
3.42	1.28011889384e-15
3.44	8.21353360221e-16
3.46	5.25507872543e-16
3.48	3.35272830672e-16
3.5	2.13298560547e-16
3.52	1.35315763724e-16
3.54	8.56012756256e-17
3.56	5.39987764321e-17
3.58	3.39672117787e-17
3.6	2.13063289655e-17
3.62	1.33269433956e-17
3.64	8.31239389162e-18
3.66	5.17006195541e-18
3.68	3.20656377124e-18
3.7	1.98316541709e-18
3.72	1.22307571548e-18
3.74	7.52182981271e-19
3.76	4.61285526022e-19
3.78	2.82093267011e-19
3.8	1.72025401116e-19
3.82	1.04609179664e-19
3.84	6.34343888567e-20
3.86	3.83581676781e-20
3.88	2.31296709342e-20
3.9	1.39078480139e-20
3.92	8.33930135027e-21
3.94	4.98630699853e-21
3.96	2.97309189833e-21
3.98	1.76773834335e-21
4.0	1.0481134898e-21
4.02	6.19697387707e-22
4.04	3.6536958232e-22
4.06	2.14816095494e-22
4.08	1.25945683845e-22
4.1	7.36346334579e-23
4.12	4.29302745367e-23
4.14	2.4959059712e-23
4.16	1.44702525195e-23
4.18	8.36580331392e-24
4.2	4.82306538511e-24
4.22	2.77282790465e-24
4.24	1.58967100071e-24
4.26	9.08817029375e-25
4.28	5.18120558524e-25
4.3	2.94557883246e-25
4.32	1.66992213194e-25
4.34	9.44077878137e-26
4.36	5.32237823127e-26
4.38	2.99219737659e-26
4.4	1.67749644146e-26
4.42	9.37821349823e-27
4.44	5.22836658255e-27
4.46	2.90669603143e-27
4.48	1.61146597659e-27
4.5	8.9090389648e-28
4.52	4.91166827637e-28
4.54	2.70032416213e-28
4.56	1.48044314391e-28
4.58	8.09388011678e-29
4.6	4.4127695819e-29
4.62	2.39913908087e-29
4.64	1.30073710832e-29
4.66	7.03256577331e-30
4.68	3.7916520511e-30
4.7	2.03860827799e-30
4.72	1.09302463921e-30
4.74	5.8440942155e-31
4.76	3.115988007e-31
4.78	1.6567839524e-31
4.8	8.78471615007e-32
4.82	4.64495547725e-32
4.84	2.44921866447e-32
4.86	1.2878520075e-32
4.88	6.75300329601e-33
4.9	3.53118746886e-33
4.92	1.84135532857e-33
4.94	9.5751954835e-34
4.96	4.96536425639e-34
4.98	2.56772313803e-34
5.0	1.32415580305e-34
