# mass number (A) = 9
# number of protons (Z) = 4
#relative orbital quantum number l = 4
# k (1/fm)	total two_body (fm^3)
0.0	0.503058207496
0.01	0.502927458662
0.02	0.502535396872
0.03	0.50188257591
0.04	0.500969917586
0.05	0.499798709985
0.06	0.498370605022
0.07	0.496687615307
0.08	0.494752110309
0.09	0.492566811843
0.1	0.490134788872
0.11	0.487459451629
0.12	0.484544545078
0.13	0.481394141708
0.14	0.478012633678
0.15	0.47440472432
0.16	0.470575419018
0.17	0.466530015468
0.18	0.462274093334
0.19	0.457813503332
0.2	0.453154355737
0.21	0.448303008352
0.22	0.443266053953
0.23	0.438050307232
0.24	0.432662791272
0.25	0.427110723568
0.26	0.421401501643
0.27	0.415542688271
0.28	0.40954199635
0.29	0.403407273461
0.3	0.397146486149
0.31	0.390767703964
0.32	0.384279083295
0.33	0.377688851058
0.34	0.371005288261
0.35	0.364236713499
0.36	0.357391466429
0.37	0.350477891261
0.38	0.343504320321
0.39	0.33647905773
0.4	0.329410363237
0.41	0.322306436282
0.42	0.315175400295
0.43	0.308025287319
0.44	0.300864022971
0.45	0.29369941181
0.46	0.286539123137
0.47	0.279390677284
0.48	0.27226143243
0.49	0.265158571969
0.5	0.258089092494
0.51	0.251059792403
0.52	0.24407726118
0.53	0.237147869373
0.54	0.230277759289
0.55	0.223472836442
0.56	0.216738761768
0.57	0.210080944623
0.58	0.203504536581
0.59	0.197014426039
0.6	0.190615233644
0.61	0.184311308534
0.62	0.1781067254
0.63	0.172005282373
0.64	0.166010499709
0.65	0.160125619287
0.66	0.154353604886
0.67	0.148697143234
0.68	0.143158645816
0.69	0.137740251402
0.7	0.132443829288
0.71	0.127270983209
0.72	0.122223055904
0.73	0.117301134291
0.74	0.112506055232
0.75	0.107838411837
0.76	0.103298560282
0.77	0.0988866270948
0.78	0.0946025168758
0.79	0.0904459204049
0.8	0.0864163231036
0.81	0.082513013803
0.82	0.0787350937811
0.83	0.0750814860257
0.84	0.0715509446827
0.85	0.0681420646495
0.86	0.0648532912735
0.87	0.061682930116
0.88	0.0586291567452
0.89	0.0556900265202
0.9	0.0528634843315
0.91	0.0501473742635
0.92	0.0475394491474
0.93	0.0450373799746
0.94	0.0426387651399
0.95	0.0403411394902
0.96	0.0381419831525
0.97	0.0360387301188
0.98	0.0340287765672
0.99	0.0321094889007
1.0	0.0302782114868
1.01	0.0285322740843
1.02	0.0268689989435
1.03	0.0252857075705
1.04	0.0237797271471
1.05	0.0223483965991
1.06	0.0209890723095
1.07	0.0196991334729
1.08	0.0184759870902
1.09	0.0173170726048
1.1	0.0162198661819
1.11	0.0151818846344
1.12	0.0142006890012
1.13	0.0132738877833
1.14	0.0123991398456
1.15	0.0115741569928
1.16	0.010796706229
1.17	0.010064611711
1.18	0.00937575640679
1.19	0.00872808347099
1.2	0.00811959734881
1.21	0.00754836462222
1.22	0.00701251461088
1.23	0.00651023974129
1.24	0.00603979569788
1.25	0.00559950136947
1.26	0.00518773860503
1.27	0.00480295179221
1.28	0.00444364727218
1.29	0.00410839260428
1.3	0.00379581569331
1.31	0.00350460379263
1.32	0.00323350239522
1.33	0.00298131402507
1.34	0.00274689694045
1.35	0.0025291637604
1.36	0.00232708002511
1.37	0.00213966270067
1.38	0.00196597863778
1.39	0.00180514299379
1.4	0.0016563176268
1.41	0.00151870946986
1.42	0.00139156889325
1.43	0.0012741880615
1.44	0.0011658992922
1.45	0.00106607342223
1.46	0.000974118187331
1.47	0.000889476619757
1.48	0.000811625468726
1.49	0.000740073647703
1.5	0.000674360712126
1.51	0.000614055370784
1.52	0.0005587540336
1.53	0.000508079398202
1.54	0.000461679077288
1.55	0.000419224268419
1.56	0.000380408467563
1.57	0.000344946227407
1.58	0.000312571961127
1.59	0.000283038792106
1.6	0.000256117449778
1.61	0.000231595211594
1.62	0.000209274890898
1.63	0.000188973870292
1.64	0.000170523179937
1.65	0.000153766620063
1.66	0.000138559926851
1.67	0.000124769980717
1.68	0.000112274055953
1.69	0.000100959110577
1.7	9.07211151875e-05
1.71	8.14644195505e-05
1.72	7.31011556181e-05
1.73	6.55506756281e-05
1.74	5.87390239215e-05
1.75	5.25984410963e-05
1.76	4.70668991121e-05
1.77	4.20876659622e-05
1.78	3.76088985371e-05
1.79	3.35832623223e-05
1.8	2.9967576589e-05
1.81	2.67224837661e-05
1.82	2.38121417089e-05
1.83	2.12039376124e-05
1.84	1.88682223557e-05
1.85	1.67780640982e-05
1.86	1.49090199934e-05
1.87	1.32389249231e-05
1.88	1.17476962015e-05
1.89	1.0417153239e-05
1.9	9.23085120316e-06
1.91	8.17392775438e-06
1.92	7.2329619813e-06
1.93	6.39584470204e-06
1.94	5.6516593416e-06
1.95	4.99057263757e-06
1.96	4.40373446728e-06
1.97	3.88318612998e-06
1.98	3.42177645644e-06
1.99	3.01308515598e-06
2.0	2.65135284743e-06
2.01	2.33141725524e-06
2.02	2.04865508577e-06
2.03	1.79892913047e-06
2.04	1.57854017348e-06
2.05	1.38418331015e-06
2.06	1.2129083106e-06
2.07	1.06208368873e-06
2.08	9.29364161514e-07
2.09	8.12661207235e-07
2.1	7.10116452732e-07
2.11	6.20077640879e-07
2.12	5.41076948574e-07
2.13	4.71811443781e-07
2.14	4.11125487119e-07
2.15	3.57994899291e-07
2.16	3.11512730412e-07
2.17	2.70876480984e-07
2.18	2.35376637019e-07
2.19	2.04386393608e-07
2.2	1.77352452155e-07
2.21	1.53786786615e-07
2.22	1.33259283374e-07
2.23	1.15391168031e-07
2.24	9.98491402343e-08
2.25	8.63401449937e-08
2.26	7.4606715568e-08
2.27	6.44228291475e-08
2.28	5.55902221381e-08
2.29	4.79351169792e-08
2.3	4.1305317099e-08
2.31	3.55676308694e-08
2.32	3.06055893056e-08
2.33	2.63174257814e-08
2.34	2.26142892403e-08
2.35	1.94186652884e-08
2.36	1.66629821939e-08
2.37	1.42883812016e-08
2.38	1.22436327295e-08
2.39	1.04841819621e-08
2.4	8.97130911304e-09
2.41	7.67139120989e-09
2.42	6.55525368318e-09
2.43	5.5976013179e-09
2.44	4.77651927867e-09
2.45	4.07303594982e-09
2.46	3.47074025616e-09
2.47	2.95544695716e-09
2.48	2.51490414675e-09
2.49	2.13853785118e-09
2.5	1.81722920644e-09
2.51	1.54312022181e-09
2.52	1.3094446033e-09
2.53	1.1103805265e-09
2.54	9.40922617284e-10
2.55	7.96770726847e-10
2.56	6.74233377657e-10
2.57	5.70144014457e-10
2.58	4.817884219e-10
2.59	4.06841871637e-10
2.6	3.4331473934e-10
2.61	2.89505488794e-10
2.62	2.43960058313e-10
2.63	2.05436806289e-10
2.64	1.7287627959e-10
2.65	1.45375162497e-10
2.66	1.22163846286e-10
2.67	1.02587131924e-10
2.68	8.60876416688e-11
2.69	7.2191570824e-11
2.7	6.04964594001e-11
2.71	5.06607057761e-11
2.72	4.23945814381e-11
2.73	3.5452538104e-11
2.74	2.9626626626e-11
2.75	2.47408715034e-11
2.76	2.06464660911e-11
2.77	1.72176720488e-11
2.78	1.43483226006e-11
2.79	1.19488430658e-11
2.8	9.94371416066e-12
2.81	8.26931398604e-12
2.82	6.87208362492e-12
2.83	5.70696905722e-12
2.84	4.73609881618e-12
2.85	3.92766260452e-12
2.86	3.25496108006e-12
2.87	2.69560131753e-12
2.88	2.23081614909e-12
2.89	1.84488876185e-12
2.9	1.52466665725e-12
2.91	1.259151416e-12
2.92	1.03915271655e-12
2.93	8.56996771669e-13
2.94	7.06280815727e-13
2.95	5.81666530672e-13
2.96	4.78706370386e-13
2.97	3.93697657835e-13
2.98	3.23560109143e-13
2.99	2.65733102922e-13
3.0	2.18089578446e-13
3.01	1.7886392695e-13
3.02	1.46591648671e-13
3.03	1.20058894936e-13
3.04	9.82603085987e-14
3.05	8.03638252545e-14
3.06	6.56813086638e-14
3.07	5.36440722244e-14
3.08	4.37824892099e-14
3.09	3.57090218693e-14
3.1	2.91041069847e-14
3.11	2.37044261153e-14
3.12	1.92931651029e-14
3.13	1.56919316783e-14
3.14	1.27540540477e-14
3.15	1.03590287541e-14
3.16	8.40792422945e-15
3.17	6.81957844252e-15
3.18	5.52745585159e-15
3.19	4.47705132303e-15
3.2	3.62374746457e-15
3.21	2.93104752848e-15
3.22	2.36911916279e-15
3.23	1.91359524146e-15
3.24	1.54458713995e-15
3.25	1.24587343525e-15
3.26	1.00423334829e-15
3.27	8.08899520556e-16
3.28	6.5110910029e-16
3.29	5.23735755523e-16
3.3	4.20988252987e-16
3.31	3.3816374816e-16
3.32	2.71446008201e-16
3.33	2.17740508679e-16
3.34	1.74539767162e-16
3.35	1.39813452208e-16
3.36	1.11918777187e-16
3.37	8.9527489478e-17
3.38	7.15664262438e-17
3.39	5.71691522403e-17
3.4	4.56366431978e-17
3.41	3.64053468812e-17
3.42	2.90212568734e-17
3.43	2.31188829086e-17
3.44	1.84042057398e-17
3.45	1.4640871919e-17
3.46	1.16390210115e-17
3.47	9.24625003766e-18
3.48	7.3403117711e-18
3.49	5.82321858333e-18
3.5	4.61648482325e-18
3.51	3.65729074478e-18
3.52	2.89539178349e-18
3.53	2.29063021459e-18
3.54	1.81093327915e-18
3.55	1.43070387203e-18
3.56	1.12952777291e-18
3.57	8.91135929365e-19
3.58	7.02572090937e-19
3.59	5.5352565317e-19
3.6	4.35797316905e-19
3.61	3.42871439603e-19
3.62	2.69574028969e-19
3.63	2.11799430404e-19
3.64	1.6629207236e-19
3.65	1.30472307285e-19
3.66	1.02297541924e-19
3.67	8.01515882145e-20
3.68	6.27565649808e-20
3.69	4.91028062618e-20
3.7	3.83931369743e-20
3.71	2.99986035821e-20
3.72	2.34233309329e-20
3.73	1.82766444453e-20
3.74	1.42509719212e-20
3.75	1.11043396433e-20
3.76	8.646517789e-21
3.77	6.72806239398e-21
3.78	5.23165465793e-21
3.79	4.06526098583e-21
3.8	3.15673495794e-21
3.81	2.44956038278e-21
3.82	1.89949668359e-21
3.83	1.47193729148e-21
3.84	1.13983102384e-21
3.85	8.82047661578e-22
3.86	6.82093741525e-22
3.87	5.27104260469e-22
3.88	4.07051590497e-22
3.89	3.14125267031e-22
3.9	2.42246096866e-22
3.91	1.86685774565e-22
3.92	1.43769314249e-22
3.93	1.10642436567e-22
3.94	8.50898647128e-23
3.95	6.53934912272e-23
3.96	5.02217475954e-23
3.97	3.85433750447e-23
3.98	2.95602634671e-23
3.99	2.26551799805e-23
4.0	1.73511157128e-23
#normalisation = 0.0481481701911
