# mass number (A) = 27
# number of protons (Z) = 13
# k (1/fm)	relative two_body (fm^3)
0.0	3.8022785232
0.02	3.80211807265
0.04	3.80160731118
0.06	3.80065886142
0.08	3.79912990658
0.1	3.79682631105
0.12	3.79350819832
0.14	3.78889680394
0.16	3.78268238223
0.18	3.7745329141
0.2	3.76410334231
0.22	3.75104504955
0.24	3.73501529394
0.26	3.71568632677
0.28	3.69275393632
0.3	3.66594518955
0.32	3.63502517848
0.34	3.59980261838
0.36	3.56013418899
0.38	3.51592755586
0.4	3.46714305446
0.42	3.41379406346
0.44	3.35594613386
0.46	3.29371497578
0.48	3.22726343415
0.5	3.15679760671
0.52	3.0825622734
0.54	3.00483581374
0.56	2.9239247901
0.58	2.84015836869
0.6	2.75388273912
0.62	2.66545567662
0.64	2.57524137155
0.66	2.48360562779
0.68	2.39091150798
0.7	2.29751547932
0.72	2.20376409003
0.74	2.10999118517
0.76	2.01651565096
0.78	1.92363966037
0.8	1.83164738022
0.82	1.74080408991
0.84	1.65135565643
0.86	1.56352830748
0.88	1.47752864478
0.9	1.39354384282
0.92	1.31174198303
0.94	1.2322724803
0.96	1.15526656599
0.98	1.08083779997
1.0	1.00908259208
1.02	0.940080721021
1.04	0.873895845755
1.06	0.810576009912
1.08	0.750154144614
1.1	0.692648578145
1.12	0.638063562933
1.14	0.586389830974
1.16	0.537605188349
1.18	0.491675158101
1.2	0.448553678547
1.22	0.408183861399
1.24	0.370498810997
1.26	0.335422502839
1.28	0.302870716511
1.3	0.272752015296
1.32	0.244968762327
1.34	0.219418161184
1.36	0.195993307486
1.38	0.17458423717
1.4	0.155078956972
1.42	0.137364442938
1.44	0.121327593605
1.46	0.106856125786
1.48	0.0938394024682
1.5	0.0821691841992
1.52	0.0717402973677
1.54	0.0624512148805
1.56	0.0542045468216
1.58	0.0469074406977
1.6	0.0404718927343
1.62	0.0348149733618
1.64	0.0298589714734
1.66	0.0255314632295
1.68	0.0217653121089
1.7	0.0184986075712
1.72	0.015674550107
1.74	0.0132412906223
1.76	0.011151732065
1.78	0.00936330097789
1.8	0.00783769627666
1.82	0.00654062205352
1.84	0.00544151060383
1.86	0.00451324121659
1.88	0.00373185957182
1.9	0.00307630188053
1.92	0.00252812720502
1.94	0.00207126072615
1.96	0.00169175009412
1.98	0.00137753642008
2.0	0.00111824094535
2.02	0.000904967966171
2.04	0.000730124197419
2.06	0.000587254426931
2.08	0.000470893041279
2.1	0.00037643078971
2.12	0.000299995991107
2.14	0.000238349273574
2.16	0.000188790861933
2.18	0.000149079389205
2.2	0.000117361198231
2.22	9.21091135628e-05
2.24	7.20696966112e-05
2.26	5.62180440885e-05
2.28	4.37192471189e-05
2.3	3.38956924261e-05
2.32	2.61994548226e-05
2.34	2.01890993875e-05
2.36	1.55102802611e-05
2.38	1.18795894074e-05
2.4	9.07117186319e-06
2.42	6.9056831299e-06
2.44	5.24121895706e-06
2.46	3.96589755925e-06
2.48	2.99181922095e-06
2.5	2.25016834822e-06
2.52	1.68725850837e-06
2.54	1.26135211968e-06
2.56	9.40113530955e-07
2.58	6.98577609787e-07
2.6	5.17535999347e-07
2.62	3.82260265038e-07
2.64	2.81495581043e-07
2.66	2.06670732486e-07
2.68	1.5128033677e-07
2.7	1.1040359698e-07
2.72	8.03308428768e-08
2.74	5.82748148736e-08
2.76	4.21483006979e-08
2.78	3.03935149916e-08
2.8	2.1851667091e-08
2.82	1.56636184969e-08
2.84	1.11944966908e-08
2.86	7.97669656707e-09
2.88	5.66694055195e-09
2.9	4.01404631438e-09
2.92	2.8348186506e-09
2.94	1.99608208352e-09
2.96	1.4013375121e-09
2.98	9.80887834479e-10
3.0	6.84556346772e-10
3.02	4.76335884681e-10
3.04	3.30470447127e-10
3.06	2.28595753036e-10
3.08	1.57659756522e-10
3.1	1.08415571193e-10
3.12	7.43329779317e-11
3.14	5.08149370962e-11
3.16	3.46355561164e-11
3.18	2.35382820151e-11
3.2	1.59496105715e-11
3.22	1.07757875821e-11
3.24	7.25892747025e-12
3.26	4.87552357249e-12
3.28	3.26509854388e-12
3.3	2.18021039644e-12
3.32	1.45153810395e-12
3.34	9.63578782616e-13
3.36	6.37786894771e-13
3.38	4.20914939921e-13
3.4	2.76977365677e-13
3.42	1.81729822787e-13
3.44	1.18888786138e-13
3.46	7.75513075423e-14
3.48	5.04396034668e-14
3.5	3.27106569789e-14
3.52	2.1151573539e-14
3.54	1.36374335283e-14
3.56	8.76717937786e-15
3.58	5.61985538198e-15
3.6	3.59194023507e-15
3.62	2.28914068025e-15
3.64	1.45464152079e-15
3.66	9.21680245563e-16
3.68	5.82299023337e-16
3.7	3.66820837895e-16
3.72	2.30411819633e-16
3.74	1.44310849458e-16
3.76	9.01233517247e-17
3.78	5.61203602086e-17
3.8	3.48456813619e-17
3.82	2.15736433077e-17
3.84	1.33181734637e-17
3.86	8.19809773528e-18
3.88	5.03186952294e-18
3.9	3.07959852703e-18
3.92	1.8793509051e-18
3.94	1.14359244369e-18
3.96	6.93880812827e-19
3.98	4.19806589894e-19
4.0	2.53259041833e-19
4.02	1.52346527207e-19
4.04	9.13803042908e-20
4.06	5.46544624054e-20
4.08	3.25950894638e-20
4.1	1.93835260936e-20
4.12	1.14939147053e-20
4.14	6.79607647551e-21
4.16	4.00685991284e-21
4.18	2.35562515289e-21
4.2	1.38090827341e-21
4.22	8.07198974448e-22
4.24	4.70493885354e-22
4.26	2.73454744983e-22
4.28	1.58480386522e-22
4.3	9.1585059677e-23
4.32	5.2775610543e-23
4.34	3.03250752041e-23
4.36	1.73752456391e-23
4.38	9.92706624331e-24
4.4	5.6555160139e-24
4.42	3.21281224941e-24
4.44	1.81995517244e-24
4.46	1.02801322843e-24
4.48	5.79028331025e-25
4.5	3.25210416615e-25
4.52	1.82134839054e-25
4.54	1.0171522534e-25
4.56	5.66426648615e-26
4.58	3.14533254858e-26
4.6	1.74162657942e-26
4.62	9.61633314935e-27
4.64	5.29456560272e-27
4.66	2.90681862292e-27
4.68	1.59137557171e-27
4.7	8.68750316736e-28
4.72	4.72917274989e-28
4.74	2.56710521558e-28
4.76	1.38953924836e-28
4.78	7.5000989377e-29
4.8	4.03675651251e-29
4.82	2.16654574737e-29
4.84	1.15950673415e-29
4.86	6.18798341285e-30
4.88	3.29303092153e-30
4.9	1.74748567162e-30
4.92	9.2470440426e-31
4.94	4.87937340094e-31
4.96	2.5674224975e-31
4.98	1.34711018987e-31
5.0	7.04825678858e-32
#normalisation = 0.992402575227
