# mass number (A) = 16
# number of protons (Z) = 8
# k (1/fm)	relative two_body (fm^3)
0.0	4.43848460418
0.02	4.43701448048
0.04	4.43259691126
0.06	4.4252104845
0.08	4.41482011869
0.1	4.40137796096
0.12	4.38482462534
0.14	4.36509075189
0.16	4.34209886253
0.18	4.31576548403
0.2	4.28600350379
0.22	4.2527247196
0.24	4.2158425403
0.26	4.17527479051
0.28	4.13094656993
0.3	4.08279311485
0.32	4.03076260841
0.34	3.97481888552
0.36	3.91494397859
0.38	3.85114045199
0.4	3.78343347558
0.42	3.71187259162
0.44	3.63653313405
0.46	3.5575172651
0.48	3.47495460098
0.5	3.38900240621
0.52	3.29984534413
0.54	3.20769478034
0.56	3.11278764432
0.58	3.01538486398
0.6	2.91576939638
0.62	2.81424388639
0.64	2.71112799279
0.66	2.60675542793
0.68	2.50147076319
0.7	2.39562605665
0.72	2.28957736284
0.74	2.18368118622
0.76	2.0782909403
0.78	1.97375347347
0.8	1.87040571979
0.82	1.76857152973
0.84	1.66855873057
0.86	1.57065646041
0.88	1.47513281304
0.9	1.38223282357
0.92	1.29217681678
0.94	1.2051591325
0.96	1.1213472341
0.98	1.04088119862
1.0	0.963873579715
1.02	0.890409627723
1.04	0.82054784538
1.06	0.754320852182
1.08	0.691736526317
1.1	0.6327793896
1.12	0.577412198507
1.14	0.525577702966
1.16	0.477200534106
1.18	0.432189182512
1.2	0.390438029799
1.22	0.351829398142
1.24	0.316235584976
1.26	0.283520853016
1.28	0.253543349182
1.3	0.226156929575
1.32	0.201212871505
1.34	0.17856145733
1.36	0.158053418692
1.38	0.139541233327
1.4	0.122880270092
1.42	0.107929780969
1.44	0.0945537416931
1.46	0.082621545111
1.48	0.0720085535346
1.5	0.0625965181043
1.52	0.0542738745642
1.54	0.0469359258884
1.56	0.0404849228863
1.58	0.0348300543015
1.6	0.0298873580166
1.62	0.0255795648363
1.64	0.0218358859626
1.66	0.0185917547495
1.68	0.0157885326573
1.7	0.0133731885549
1.72	0.0112979596784
1.74	0.00952000166838
1.76	0.00800103420578
1.78	0.00670698787615
1.8	0.00560765701728
1.82	0.0046763624799
1.84	0.00388962745359
1.86	0.0032268687958
1.88	0.00267010565428
1.9	0.0022036865972
1.92	0.00181403595961
1.94	0.00148941968129
1.96	0.00121973054455
1.98	0.000996292419138
2.0	0.000811682879776
2.02	0.000659573374375
2.04	0.000534585982729
2.06	0.000432165710088
2.08	0.000348467201859
2.1	0.000280254739141
2.12	0.000224814374521
2.14	0.000179877088621
2.16	0.00014355188572
2.18	0.000114267797371
2.2	9.07238227761e-05
2.22	7.18459005732e-05
2.24	5.67500761914e-05
2.26	4.47110997088e-05
2.28	3.51357595879e-05
2.3	2.75403262823e-05
2.32	2.15315455009e-05
2.34	1.67906830924e-05
2.36	1.30601815545e-05
2.38	1.01325417664e-05
2.4	7.84109254284e-06
2.42	6.05235500676e-06
2.44	4.65974867639e-06
2.46	3.57842174401e-06
2.48	2.74101952606e-06
2.5	2.09423276799e-06
2.52	1.59599169394e-06
2.54	1.21319271486e-06
2.56	9.19862859455e-07
2.58	6.95682577359e-07
2.6	5.24800872415e-07
2.62	3.94888030285e-07
2.64	2.96380761227e-07
2.66	2.21882617353e-07
2.68	1.65689273004e-07
2.7	1.23413864182e-07
2.72	9.16922342694e-08
2.74	6.79517744821e-08
2.76	5.02307060349e-08
2.78	3.70372371457e-08
2.8	2.72401367039e-08
2.82	1.99839787941e-08
2.84	1.46236971971e-08
2.86	1.06742046712e-08
2.88	7.7717270836e-09
2.9	5.64421810935e-09
2.92	4.08879009807e-09
2.94	2.9545488285e-09
2.96	2.12957723043e-09
2.98	1.53109458224e-09
3.0	1.09803852233e-09
3.02	7.85489872149e-10
3.04	5.60494787502e-10
3.06	3.98943189497e-10
3.08	2.83243224907e-10
3.1	2.00593800352e-10
3.12	1.41705100133e-10
3.14	9.98536508328e-11
3.16	7.01864690599e-11
3.18	4.92101062771e-11
3.2	3.4416535539e-11
3.22	2.40100138566e-11
3.24	1.67082340183e-11
3.26	1.15979712892e-11
3.28	8.03058729701e-12
3.3	5.54659985694e-12
3.32	3.82138735722e-12
3.34	2.6262159146e-12
3.36	1.80034348989e-12
3.38	1.23110849079e-12
3.4	8.39757166032e-13
3.42	5.7138386401e-13
3.44	3.87810447185e-13
3.46	2.62560100716e-13
3.48	1.77319320665e-13
3.5	1.19454329349e-13
3.52	8.02724719689e-14
3.54	5.38084748732e-14
3.56	3.59794418887e-14
3.58	2.39981764738e-14
3.6	1.59669706224e-14
3.62	1.05971150952e-14
3.64	7.01574816854e-15
3.66	4.63320927392e-15
3.68	3.05219160155e-15
3.7	2.00569079417e-15
3.72	1.3147368595e-15
3.74	8.59679794519e-16
3.76	5.6073539713e-16
3.78	3.64840416742e-16
3.8	2.36794697666e-16
3.82	1.53308205762e-16
3.84	9.90110257334e-17
3.86	6.37862073212e-17
3.88	4.099164893e-17
3.9	2.62778426715e-17
3.92	1.68038988253e-17
3.94	1.07190612866e-17
3.96	6.82071822265e-18
3.98	4.32942708448e-18
4.0	2.74130919925e-18
4.02	1.73146290463e-18
4.04	1.09092836131e-18
4.06	6.85657832451e-19
4.08	4.29879871631e-19
4.1	2.68853397134e-19
4.12	1.67730862713e-19
4.14	1.04385397626e-19
4.16	6.48031497337e-20
4.18	4.01312190843e-20
4.2	2.47912677497e-20
4.22	1.52772622821e-20
4.24	9.39124166964e-21
4.26	5.7587927052e-21
4.28	3.52266288674e-21
4.3	2.14952345954e-21
4.32	1.30841350437e-21
4.34	7.94474244588e-22
4.36	4.81223529468e-22
4.38	2.9076783276e-22
4.4	1.75258295601e-22
4.42	1.05376499941e-22
4.44	6.32036495067e-23
4.46	3.7815859929e-23
4.48	2.25704115382e-23
4.5	1.34381312879e-23
4.52	7.98127758967e-24
4.54	4.72868422519e-24
4.56	2.79474892065e-24
4.58	1.64770738908e-24
4.6	9.69063888056e-25
4.62	5.68538627702e-25
4.64	3.32738462431e-25
4.66	1.94259250463e-25
4.68	1.13134821936e-25
4.7	6.57274798891e-26
4.72	3.80920166225e-26
4.74	2.20220353112e-26
4.76	1.27004073812e-26
4.78	7.30659030808e-27
4.8	4.19323273021e-27
4.82	2.40060374591e-27
4.84	1.37097484958e-27
4.86	7.81045229339e-28
4.88	4.43875074671e-28
4.9	2.51642156828e-28
4.92	1.42312907584e-28
4.94	8.02867025555e-29
4.96	4.51836769828e-29
4.98	2.53663697707e-29
5.0	1.42060731383e-29
#normalisation = 0.977778205569
