# mass number (A) = 12
# number of protons (Z) = 6
#relative orbital quantum number l = 1
# k (1/fm)	relative two_body (fm^3)
0.0	0.0
0.01	0.000962817354308
0.02	0.00384804880769
0.03	0.0086460459951
0.04	0.0153407731168
0.05	0.0239098739068
0.06	0.0343247649006
0.07	0.0465507545188
0.08	0.0605471873488
0.09	0.0762676128783
0.1	0.0936599778101
0.11	0.112666840967
0.12	0.133225609686
0.13	0.155268796485
0.14	0.17872429471
0.15	0.203515671738
0.16	0.229562478287
0.17	0.256780572248
0.18	0.285082455439
0.19	0.314377621609
0.2	0.344572913965
0.21	0.375572890481
0.22	0.407280195213
0.23	0.439595933836
0.24	0.472420051603
0.25	0.505651711962
0.26	0.539189674042
0.27	0.572932667295
0.28	0.606779761575
0.29	0.640630731006
0.3	0.674386410037
0.31	0.707949040149
0.32	0.741222605745
0.33	0.774113157834
0.34	0.806529124205
0.35	0.838381604889
0.36	0.869584651765
0.37	0.900055531335
0.38	0.929714969707
0.39	0.958487379036
0.4	0.986301064681
0.41	1.01308841253
0.42	1.03878605603
0.43	1.06333502251
0.44	1.08668085864
0.45	1.10877373488
0.46	1.12956852878
0.47	1.14902488745
0.48	1.16710726917
0.49	1.18378496457
0.5	1.19903209771
0.51	1.21282760765
0.52	1.22515521088
0.53	1.23600334551
0.54	1.24536509777
0.55	1.25323811168
0.56	1.25962448283
0.57	1.26453063707
0.58	1.26796719514
0.59	1.26994882427
0.6	1.27049407782
0.61	1.26962522396
0.62	1.26736806458
0.63	1.26375174551
0.64	1.25880855915
0.65	1.2525737408
0.66	1.24508525949
0.67	1.23638360485
0.68	1.22651157073
0.69	1.21551403693
0.7	1.20343774992
0.71	1.19033110363
0.72	1.17624392135
0.73	1.16122723954
0.74	1.1453330946
0.75	1.12861431336
0.76	1.11112430807
0.77	1.09291687673
0.78	1.07404600937
0.79	1.05456570094
0.8	1.03452977137
0.81	1.01399169334
0.82	0.993004428216
0.83	0.97162027053
0.84	0.949890701327
0.85	0.92786625071
0.86	0.905596369764
0.87	0.883129312029
0.88	0.860512024646
0.89	0.83779004922
0.9	0.815007432417
0.91	0.792206646234
0.92	0.769428517885
0.93	0.746712169137
0.94	0.724094964949
0.95	0.701612471189
0.96	0.679298421188
0.97	0.657184690859
0.98	0.635301282066
0.99	0.613676313917
1.0	0.592336021628
1.01	0.571304762579
1.02	0.550605029181
1.03	0.530257468141
1.04	0.510280905717
1.05	0.490692378545
1.06	0.471507169597
1.07	0.452738848866
1.08	0.434399318317
1.09	0.416498860712
1.1	0.399046191861
1.11	0.382048515894
1.12	0.365511583153
1.13	0.349439750295
1.14	0.33383604223
1.15	0.31870221553
1.16	0.304038822925
1.17	0.289845278586
1.18	0.276119923828
1.19	0.262860092954
1.2	0.250062178945
1.21	0.237721698712
1.22	0.22583335767
1.23	0.214391113403
1.24	0.20338823819
1.25	0.192817380207
1.26	0.182670623233
1.27	0.172939544685
1.28	0.163615271858
1.29	0.154688536239
1.3	0.146149725788
1.31	0.137988935108
1.32	0.130196013414
1.33	0.122760610266
1.34	0.115672218998
1.35	0.108920217843
1.36	0.102493908708
1.37	0.0963825536184
1.38	0.0905754088339
1.39	0.0850617566458
1.4	0.0798309348953
1.41	0.0748723642442
1.42	0.0701755732439
1.43	0.0657302212555
1.44	0.0615261192801
1.45	0.0575532487637
1.46	0.0538017784451
1.47	0.0502620793216
1.48	0.0469247378089
1.49	0.0437805671749
1.5	0.0408206173286
1.51	0.0380361830497
1.52	0.0354188107403
1.53	0.0329603037862
1.54	0.0306527266109
1.55	0.0284884075082
1.56	0.0264599403355
1.57	0.0245601851508
1.58	0.0227822678746
1.59	0.0211195790542
1.6	0.0195657718089
1.61	0.0181147590281
1.62	0.016760709897
1.63	0.0154980458157
1.64	0.0143214357808
1.65	0.0132257912905
1.66	0.0122062608346
1.67	0.0112582240263
1.68	0.0103772854288
1.69	0.00955926812815
1.7	0.00880020710039
1.71	0.00809634241597
1.72	0.00744411232409
1.73	0.00684014625467
1.74	0.00628125777331
1.75	0.00576443752183
1.76	0.00528684617394
1.77	0.00484580743294
1.78	0.00443880109588
1.79	0.00406345620589
1.8	0.00371754431223
1.81	0.00339897285523
1.82	0.00310577869108
1.83	0.00283612176962
1.84	0.00258827897613
1.85	0.00236063814652
1.86	0.00215169226353
1.87	0.0019600338401
1.88	0.00178434949455
1.89	0.00162341472101
1.9	0.00147608885711
1.91	0.00134131025016
1.92	0.00121809162169
1.93	0.0011055156296
1.94	0.00100273062621
1.95	0.00090894660978
1.96	0.000823431366494
1.97	0.000745506799275
1.98	0.000674545439369
1.99	0.00060996713616
2.0	0.00055123592036
2.01	0.00049785703543
2.02	0.00044937413183
2.03	0.000405366618525
2.04	0.000365447166045
2.05	0.000329259355269
2.06	0.0002964754661
2.07	0.000266794400131
2.08	0.000239939731444
2.09	0.00021565787971
2.1	0.000193716399833
2.11	0.000173902382466
2.12	0.000156020959832
2.13	0.000139893911413
2.14	0.000125358364203
2.15	0.000112265582374
2.16	0.000100479841365
2.17	8.98773815629e-05
2.18	8.03454369358e-05
2.19	7.17813341341e-05
2.2	6.40916577742e-05
2.21	5.71914777909e-05
2.22	5.10036349319e-05
2.23	4.54580806475e-05
2.24	4.04912678096e-05
2.25	3.60455888696e-05
2.26	3.20688582439e-05
2.27	2.85138358791e-05
2.28	2.53377891223e-05
2.29	2.25020901789e-05
2.3	1.99718465975e-05
2.31	1.77155623742e-05
2.32	1.5704827412e-05
2.33	1.39140332121e-05
2.34	1.23201128061e-05
2.35	1.09023030687e-05
2.36	9.64192766912e-06
2.37	8.52219903918e-06
2.38	7.52803784332e-06
2.39	6.64590854252e-06
2.4	5.86366974194e-06
2.41	5.17043810627e-06
2.42	4.55646471455e-06
2.43	4.01302280953e-06
2.44	3.53230597447e-06
2.45	3.10733584367e-06
2.46	2.73187852138e-06
2.47	2.40036894831e-06
2.48	2.10784251437e-06
2.49	1.84987327264e-06
2.5	1.62251816152e-06
2.51	1.42226669028e-06
2.52	1.2459955885e-06
2.53	1.09092796153e-06
2.54	9.54596532732e-07
2.55	8.34810589234e-07
2.56	7.2962628084e-07
2.57	6.37319952434e-07
2.58	5.56364218302e-07
2.59	4.85406512778e-07
2.6	4.2324987546e-07
2.61	3.68835751201e-07
2.62	3.21228605161e-07
2.63	2.79602171709e-07
2.64	2.43227172813e-07
2.65	2.11460357055e-07
2.66	1.83734724502e-07
2.67	1.59550815578e-07
2.68	1.38468953837e-07
2.69	1.20102343254e-07
2.7	1.04110930376e-07
2.71	9.0195950585e-08
2.72	7.80950857305e-08
2.73	6.75781677131e-08
2.74	5.84433692253e-08
2.75	5.05138288426e-08
2.76	4.3634663086e-08
2.77	3.7670322982e-08
2.78	3.25022570706e-08
2.79	2.8026846808e-08
2.8	2.41535839115e-08
2.81	2.08034624329e-08
2.82	1.79075612685e-08
2.83	1.54057954304e-08
2.84	1.32458167628e-08
2.85	1.13820468955e-08
2.86	9.77482712444e-09
2.87	8.38967160276e-09
2.88	7.1966117453e-09
2.89	6.16962110583e-09
2.9	5.28611119961e-09
2.91	4.52648982552e-09
2.92	3.87377440752e-09
2.93	3.31325373511e-09
2.94	2.83219224821e-09
2.95	2.41957169289e-09
2.96	2.06586558e-09
2.97	1.76284241612e-09
2.98	1.5033941537e-09
2.99	1.2813867299e-09
3.0	1.09152993857e-09
#normalisation = 0.49292947988
#sigma**2 n(k)k**2 = 0.244681041722
#kurtosis n(k)k**2 = -1.12628284345
#skewness n(k)k**2 = 0.530282533145
